# PiecewisePolytrope(Gammas=1.36,3.00; Rhos=2.45e-4; Kappa0=0.102; Smooth=0; GammaTh=2;)
# rho_c = 0.0014
# r (iso) = 6.38471
#[1] r (isotropic coords)
#[2] rho (baryon density)
#[3] P
0   0.0014   0.00023375
0.00645502   0.0014   0.000233749
0.01291   0.00139999   0.000233747
0.0193651   0.00139999   0.000233743
0.0258201   0.00139998   0.000233738
0.0322751   0.00139996   0.000233731
0.0387301   0.00139995   0.000233723
0.0451851   0.00139993   0.000233713
0.0516401   0.0013999   0.000233702
0.0580952   0.00139988   0.000233689
0.0645502   0.00139985   0.000233674
0.0710052   0.00139982   0.000233659
0.0774602   0.00139978   0.000233641
0.0839152   0.00139974   0.000233622
0.0903702   0.0013997   0.000233602
0.0968253   0.00139966   0.00023358
0.10328   0.00139961   0.000233557
0.109735   0.00139956   0.000233532
0.11619   0.00139951   0.000233505
0.122645   0.00139945   0.000233477
0.1291   0.0013994   0.000233448
0.135555   0.00139933   0.000233417
0.14201   0.00139927   0.000233384
0.148465   0.0013992   0.00023335
0.15492   0.00139913   0.000233315
0.161375   0.00139906   0.000233278
0.16783   0.00139898   0.000233239
0.174285   0.0013989   0.000233199
0.18074   0.00139882   0.000233158
0.187195   0.00139873   0.000233115
0.193651   0.00139864   0.00023307
0.200106   0.00139855   0.000233024
0.206561   0.00139845   0.000232976
0.213016   0.00139836   0.000232927
0.219471   0.00139825   0.000232877
0.225926   0.00139815   0.000232825
0.232381   0.00139804   0.000232771
0.238836   0.00139793   0.000232716
0.245291   0.00139782   0.00023266
0.251746   0.0013977   0.000232602
0.258201   0.00139758   0.000232542
0.264656   0.00139746   0.000232481
0.271111   0.00139734   0.000232419
0.277566   0.00139721   0.000232355
0.284021   0.00139708   0.000232289
0.290476   0.00139694   0.000232223
0.296931   0.00139681   0.000232154
0.303386   0.00139667   0.000232084
0.309841   0.00139652   0.000232013
0.316296   0.00139638   0.00023194
0.322751   0.00139623   0.000231866
0.329206   0.00139608   0.00023179
0.335661   0.00139592   0.000231712
0.342116   0.00139576   0.000231634
0.348571   0.0013956   0.000231553
0.355026   0.00139544   0.000231472
0.361481   0.00139527   0.000231388
0.367936   0.0013951   0.000231304
0.374391   0.00139493   0.000231218
0.380846   0.00139475   0.00023113
0.387301   0.00139457   0.000231041
0.393756   0.00139439   0.00023095
0.400211   0.0013942   0.000230858
0.406666   0.00139401   0.000230765
0.413121   0.00139382   0.00023067
0.419576   0.00139363   0.000230574
0.426031   0.00139343   0.000230476
0.432486   0.00139323   0.000230376
0.438941   0.00139303   0.000230276
0.445396   0.00139282   0.000230173
0.451851   0.00139261   0.00023007
0.458306   0.0013924   0.000229965
0.464761   0.00139219   0.000229858
0.471216   0.00139197   0.00022975
0.477671   0.00139175   0.000229641
0.484126   0.00139152   0.00022953
0.490581   0.0013913   0.000229418
0.497036   0.00139107   0.000229304
0.503491   0.00139083   0.000229189
0.509946   0.0013906   0.000229072
0.516401   0.00139036   0.000228954
0.522856   0.00139012   0.000228835
0.529311   0.00138987   0.000228714
0.535766   0.00138962   0.000228591
0.542221   0.00138937   0.000228468
0.548676   0.00138912   0.000228342
0.555131   0.00138886   0.000228216
0.561586   0.0013886   0.000228088
0.568042   0.00138834   0.000227959
0.574497   0.00138808   0.000227828
0.580952   0.00138781   0.000227696
0.587407   0.00138754   0.000227562
0.593862   0.00138726   0.000227427
0.600317   0.00138698   0.000227291
0.606772   0.0013867   0.000227153
0.613227   0.00138642   0.000227014
0.619682   0.00138613   0.000226873
0.626137   0.00138584   0.000226731
0.632592   0.00138555   0.000226588
0.639047   0.00138526   0.000226443
0.645502   0.00138496   0.000226297
0.651957   0.00138466   0.000226149
0.658412   0.00138435   0.000226
0.664867   0.00138405   0.00022585
0.671322   0.00138374   0.000225698
0.677777   0.00138342   0.000225545
0.684232   0.00138311   0.000225391
0.690687   0.00138279   0.000225235
0.697142   0.00138247   0.000225078
0.703597   0.00138214   0.00022492
0.710052   0.00138182   0.00022476
0.716507   0.00138149   0.000224599
0.722962   0.00138115   0.000224436
0.729417   0.00138082   0.000224272
0.735872   0.00138048   0.000224107
0.742327   0.00138014   0.000223941
0.748782   0.00137979   0.000223773
0.755237   0.00137944   0.000223604
0.761692   0.00137909   0.000223433
0.768147   0.00137874   0.000223261
0.774602   0.00137838   0.000223088
0.781057   0.00137802   0.000222913
0.787512   0.00137766   0.000222738
0.793967   0.00137729   0.00022256
0.800422   0.00137693   0.000222382
0.806877   0.00137655   0.000222202
0.813332   0.00137618   0.000222021
0.819787   0.0013758   0.000221839
0.826242   0.00137542   0.000221655
0.832697   0.00137504   0.00022147
0.839152   0.00137466   0.000221284
0.845607   0.00137427   0.000221096
0.852062   0.00137388   0.000220907
0.858517   0.00137348   0.000220717
0.864972   0.00137308   0.000220525
0.871427   0.00137268   0.000220333
0.877882   0.00137228   0.000220139
0.884337   0.00137187   0.000219943
0.890792   0.00137147   0.000219747
0.897247   0.00137105   0.000219549
0.903702   0.00137064   0.00021935
0.910157   0.00137022   0.00021915
0.916612   0.0013698   0.000218948
0.923067   0.00136938   0.000218745
0.929522   0.00136895   0.000218541
0.935977   0.00136852   0.000218336
0.942433   0.00136809   0.000218129
0.948888   0.00136766   0.000217922
0.955343   0.00136722   0.000217713
0.961798   0.00136678   0.000217502
0.968253   0.00136634   0.000217291
0.974708   0.00136589   0.000217078
0.981163   0.00136544   0.000216864
0.987618   0.00136499   0.000216649
0.994073   0.00136454   0.000216433
1.00053   0.00136408   0.000216215
1.00698   0.00136362   0.000215996
1.01344   0.00136316   0.000215776
1.01989   0.00136269   0.000215555
1.02635   0.00136222   0.000215333
1.0328   0.00136175   0.000215109
1.03926   0.00136127   0.000214884
1.04571   0.0013608   0.000214659
1.05217   0.00136032   0.000214431
1.05862   0.00135983   0.000214203
1.06508   0.00135935   0.000213974
1.07153   0.00135886   0.000213743
1.07799   0.00135837   0.000213511
1.08444   0.00135787   0.000213278
1.0909   0.00135738   0.000213044
1.09735   0.00135688   0.000212809
1.10381   0.00135638   0.000212573
1.11026   0.00135587   0.000212335
1.11672   0.00135536   0.000212096
1.12317   0.00135485   0.000211857
1.12963   0.00135434   0.000211616
1.13608   0.00135382   0.000211374
1.14254   0.0013533   0.00021113
1.14899   0.00135278   0.000210886
1.15545   0.00135225   0.000210641
1.1619   0.00135173   0.000210394
1.16836   0.0013512   0.000210147
1.17481   0.00135066   0.000209898
1.18127   0.00135013   0.000209648
1.18772   0.00134959   0.000209397
1.19418   0.00134905   0.000209145
1.20063   0.0013485   0.000208892
1.20709   0.00134795   0.000208638
1.21354   0.0013474   0.000208382
1.22   0.00134685   0.000208126
1.22645   0.0013463   0.000207869
1.23291   0.00134574   0.00020761
1.23936   0.00134518   0.000207351
1.24582   0.00134461   0.00020709
1.25227   0.00134405   0.000206828
1.25873   0.00134348   0.000206566
1.26518   0.0013429   0.000206302
1.27164   0.00134233   0.000206037
1.27809   0.00134175   0.000205771
1.28455   0.00134117   0.000205504
1.291   0.00134059   0.000205237
1.29746   0.00134   0.000204968
1.30391   0.00133941   0.000204698
1.31037   0.00133882   0.000204427
1.31682   0.00133823   0.000204155
1.32328   0.00133763   0.000203882
1.32973   0.00133703   0.000203608
1.33619   0.00133643   0.000203333
1.34264   0.00133583   0.000203057
1.3491   0.00133522   0.00020278
1.35555   0.00133461   0.000202502
1.36201   0.001334   0.000202223
1.36846   0.00133338   0.000201944
1.37492   0.00133276   0.000201663
1.38137   0.00133214   0.000201381
1.38783   0.00133152   0.000201098
1.39428   0.00133089   0.000200814
1.40074   0.00133026   0.00020053
1.40719   0.00132963   0.000200244
1.41365   0.001329   0.000199958
1.4201   0.00132836   0.00019967
1.42656   0.00132772   0.000199382
1.43301   0.00132708   0.000199092
1.43947   0.00132643   0.000198802
1.44592   0.00132578   0.000198511
1.45238   0.00132513   0.000198219
1.45883   0.00132448   0.000197926
1.46529   0.00132382   0.000197632
1.47174   0.00132316   0.000197337
1.4782   0.0013225   0.000197041
1.48465   0.00132184   0.000196745
1.49111   0.00132117   0.000196447
1.49756   0.0013205   0.000196149
1.50402   0.00131983   0.00019585
1.51047   0.00131916   0.00019555
1.51693   0.00131848   0.000195249
1.52338   0.0013178   0.000194947
1.52984   0.00131712   0.000194644
1.53629   0.00131643   0.00019434
1.54275   0.00131574   0.000194036
1.5492   0.00131505   0.000193731
1.55566   0.00131436   0.000193425
1.56211   0.00131367   0.000193118
1.56857   0.00131297   0.00019281
1.57502   0.00131227   0.000192501
1.58148   0.00131156   0.000192192
1.58793   0.00131086   0.000191882
1.59439   0.00131015   0.000191571
1.60084   0.00130944   0.000191259
1.6073   0.00130872   0.000190946
1.61375   0.00130801   0.000190633
1.62021   0.00130729   0.000190318
1.62666   0.00130657   0.000190003
1.63312   0.00130584   0.000189688
1.63957   0.00130511   0.000189371
1.64603   0.00130438   0.000189054
1.65248   0.00130365   0.000188736
1.65894   0.00130292   0.000188417
1.66539   0.00130218   0.000188097
1.67185   0.00130144   0.000187777
1.6783   0.0013007   0.000187455
1.68476   0.00129995   0.000187133
1.69121   0.00129921   0.000186811
1.69767   0.00129846   0.000186487
1.70412   0.0012977   0.000186163
1.71058   0.00129695   0.000185839
1.71703   0.00129619   0.000185513
1.72349   0.00129543   0.000185187
1.72994   0.00129467   0.00018486
1.7364   0.0012939   0.000184532
1.74285   0.00129313   0.000184204
1.74931   0.00129236   0.000183875
1.75576   0.00129159   0.000183545
1.76222   0.00129081   0.000183214
1.76867   0.00129004   0.000182883
1.77513   0.00128926   0.000182551
1.78158   0.00128847   0.000182219
1.78804   0.00128769   0.000181886
1.79449   0.0012869   0.000181552
1.80095   0.00128611   0.000181217
1.8074   0.00128531   0.000180882
1.81386   0.00128452   0.000180547
1.82031   0.00128372   0.00018021
1.82677   0.00128292   0.000179873
1.83322   0.00128212   0.000179535
1.83968   0.00128131   0.000179197
1.84613   0.0012805   0.000178858
1.85259   0.00127969   0.000178519
1.85904   0.00127888   0.000178178
1.8655   0.00127806   0.000177838
1.87195   0.00127724   0.000177496
1.87841   0.00127642   0.000177154
1.88487   0.0012756   0.000176812
1.89132   0.00127477   0.000176469
1.89778   0.00127395   0.000176125
1.90423   0.00127312   0.000175781
1.91069   0.00127228   0.000175436
1.91714   0.00127145   0.00017509
1.9236   0.00127061   0.000174744
1.93005   0.00126977   0.000174398
1.93651   0.00126892   0.00017405
1.94296   0.00126808   0.000173703
1.94942   0.00126723   0.000173355
1.95587   0.00126638   0.000173006
1.96233   0.00126553   0.000172656
1.96878   0.00126467   0.000172307
1.97524   0.00126381   0.000171956
1.98169   0.00126295   0.000171605
1.98815   0.00126209   0.000171254
1.9946   0.00126123   0.000170902
2.00106   0.00126036   0.00017055
2.00751   0.00125949   0.000170197
2.01397   0.00125862   0.000169843
2.02042   0.00125774   0.000169489
2.02688   0.00125686   0.000169135
2.03333   0.00125599   0.00016878
2.03979   0.0012551   0.000168425
2.04624   0.00125422   0.000168069
2.0527   0.00125333   0.000167713
2.05915   0.00125244   0.000167356
2.06561   0.00125155   0.000166999
2.07206   0.00125066   0.000166641
2.07852   0.00124976   0.000166283
2.08497   0.00124886   0.000165925
2.09143   0.00124796   0.000165566
2.09788   0.00124706   0.000165206
2.10434   0.00124615   0.000164846
2.11079   0.00124524   0.000164486
2.11725   0.00124433   0.000164125
2.1237   0.00124342   0.000163764
2.13016   0.0012425   0.000163403
2.13661   0.00124158   0.000163041
2.14307   0.00124066   0.000162679
2.14952   0.00123974   0.000162316
2.15598   0.00123882   0.000161953
2.16243   0.00123789   0.000161589
2.16889   0.00123696   0.000161226
2.17534   0.00123603   0.000160861
2.1818   0.00123509   0.000160497
2.18825   0.00123416   0.000160132
2.19471   0.00123322   0.000159767
2.20116   0.00123227   0.000159401
2.20762   0.00123133   0.000159035
2.21407   0.00123038   0.000158668
2.22053   0.00122944   0.000158302
2.22698   0.00122849   0.000157935
2.23344   0.00122753   0.000157567
2.23989   0.00122658   0.0001572
2.24635   0.00122562   0.000156832
2.2528   0.00122466   0.000156463
2.25926   0.0012237   0.000156095
2.26571   0.00122273   0.000155726
2.27217   0.00122176   0.000155356
2.27862   0.00122079   0.000154987
2.28508   0.00121982   0.000154617
2.29153   0.00121885   0.000154247
2.29799   0.00121787   0.000153877
2.30444   0.00121689   0.000153506
2.3109   0.00121591   0.000153135
2.31735   0.00121493   0.000152764
2.32381   0.00121394   0.000152392
2.33026   0.00121296   0.00015202
2.33672   0.00121196   0.000151648
2.34317   0.00121097   0.000151276
2.34963   0.00120998   0.000150904
2.35608   0.00120898   0.000150531
2.36254   0.00120798   0.000150158
2.36899   0.00120698   0.000149785
2.37545   0.00120598   0.000149411
2.3819   0.00120497   0.000149038
2.38836   0.00120396   0.000148664
2.39481   0.00120295   0.00014829
2.40127   0.00120194   0.000147915
2.40772   0.00120092   0.000147541
2.41418   0.0011999   0.000147166
2.42063   0.00119888   0.000146791
2.42709   0.00119786   0.000146416
2.43354   0.00119684   0.000146041
2.44   0.00119581   0.000145665
2.44645   0.00119478   0.00014529
2.45291   0.00119375   0.000144914
2.45936   0.00119272   0.000144538
2.46582   0.00119168   0.000144162
2.47227   0.00119064   0.000143785
2.47873   0.0011896   0.000143409
2.48518   0.00118856   0.000143032
2.49164   0.00118752   0.000142655
2.49809   0.00118647   0.000142279
2.50455   0.00118542   0.000141901
2.511   0.00118437   0.000141524
2.51746   0.00118332   0.000141147
2.52391   0.00118226   0.00014077
2.53037   0.0011812   0.000140392
2.53682   0.00118014   0.000140014
2.54328   0.00117908   0.000139637
2.54973   0.00117802   0.000139259
2.55619   0.00117695   0.000138881
2.56264   0.00117588   0.000138503
2.5691   0.00117481   0.000138125
2.57555   0.00117374   0.000137746
2.58201   0.00117266   0.000137368
2.58846   0.00117158   0.00013699
2.59492   0.0011705   0.000136611
2.60137   0.00116942   0.000136233
2.60783   0.00116834   0.000135854
2.61428   0.00116725   0.000135475
2.62074   0.00116616   0.000135097
2.62719   0.00116507   0.000134718
2.63365   0.00116398   0.000134339
2.6401   0.00116288   0.00013396
2.64656   0.00116179   0.000133581
2.65301   0.00116069   0.000133202
2.65947   0.00115958   0.000132823
2.66592   0.00115848   0.000132444
2.67238   0.00115737   0.000132065
2.67883   0.00115627   0.000131686
2.68529   0.00115516   0.000131307
2.69174   0.00115404   0.000130928
2.6982   0.00115293   0.000130549
2.70465   0.00115181   0.00013017
2.71111   0.00115069   0.000129791
2.71756   0.00114957   0.000129412
2.72402   0.00114845   0.000129033
2.73047   0.00114732   0.000128654
2.73693   0.00114619   0.000128275
2.74338   0.00114506   0.000127896
2.74984   0.00114393   0.000127517
2.75629   0.0011428   0.000127138
2.76275   0.00114166   0.000126759
2.7692   0.00114052   0.00012638
2.77566   0.00113938   0.000126001
2.78211   0.00113824   0.000125623
2.78857   0.00113709   0.000125244
2.79502   0.00113595   0.000124865
2.80148   0.0011348   0.000124487
2.80793   0.00113365   0.000124108
2.81439   0.00113249   0.00012373
2.82084   0.00113134   0.000123351
2.8273   0.00113018   0.000122973
2.83375   0.00112902   0.000122595
2.84021   0.00112786   0.000122217
2.84666   0.00112669   0.000121839
2.85312   0.00112553   0.000121461
2.85957   0.00112436   0.000121083
2.86603   0.00112319   0.000120705
2.87248   0.00112202   0.000120327
2.87894   0.00112084   0.00011995
2.88539   0.00111966   0.000119572
2.89185   0.00111849   0.000119195
2.8983   0.0011173   0.000118818
2.90476   0.00111612   0.000118441
2.91121   0.00111494   0.000118064
2.91767   0.00111375   0.000117687
2.92412   0.00111256   0.00011731
2.93058   0.00111137   0.000116934
2.93703   0.00111017   0.000116558
2.94349   0.00110898   0.000116181
2.94994   0.00110778   0.000115805
2.9564   0.00110658   0.000115429
2.96285   0.00110538   0.000115054
2.96931   0.00110417   0.000114678
2.97576   0.00110297   0.000114303
2.98222   0.00110176   0.000113927
2.98867   0.00110055   0.000113552
2.99513   0.00109934   0.000113177
3.00158   0.00109812   0.000112803
3.00804   0.0010969   0.000112428
3.01449   0.00109569   0.000112054
3.02095   0.00109446   0.000111679
3.0274   0.00109324   0.000111305
3.03386   0.00109202   0.000110932
3.04031   0.00109079   0.000110558
3.04677   0.00108956   0.000110185
3.05322   0.00108833   0.000109812
3.05968   0.0010871   0.000109439
3.06613   0.00108586   0.000109066
3.07259   0.00108462   0.000108693
3.07904   0.00108338   0.000108321
3.0855   0.00108214   0.000107949
3.09195   0.0010809   0.000107577
3.09841   0.00107965   0.000107206
3.10486   0.0010784   0.000106834
3.11132   0.00107715   0.000106463
3.11777   0.0010759   0.000106093
3.12423   0.00107465   0.000105722
3.13068   0.00107339   0.000105352
3.13714   0.00107213   0.000104982
3.14359   0.00107087   0.000104612
3.15005   0.00106961   0.000104242
3.1565   0.00106834   0.000103873
3.16296   0.00106708   0.000103504
3.16941   0.00106581   0.000103135
3.17587   0.00106454   0.000102767
3.18232   0.00106327   0.000102399
3.18878   0.00106199   0.000102031
3.19523   0.00106071   0.000101663
3.20169   0.00105944   0.000101296
3.20814   0.00105815   0.000100929
3.2146   0.00105687   0.000100562
3.22105   0.00105559   0.000100196
3.22751   0.0010543   9.98294e-05
3.23396   0.00105301   9.94636e-05
3.24042   0.00105172   9.90981e-05
3.24687   0.00105042   9.87329e-05
3.25333   0.00104913   9.83681e-05
3.25978   0.00104783   9.80035e-05
3.26624   0.00104653   9.76393e-05
3.27269   0.00104523   9.72754e-05
3.27915   0.00104393   9.69118e-05
3.2856   0.00104262   9.65486e-05
3.29206   0.00104131   9.61857e-05
3.29851   0.00104   9.58232e-05
3.30497   0.00103869   9.5461e-05
3.31142   0.00103738   9.50991e-05
3.31788   0.00103606   9.47376e-05
3.32433   0.00103474   9.43764e-05
3.33079   0.00103342   9.40156e-05
3.33724   0.0010321   9.36552e-05
3.3437   0.00103077   9.32951e-05
3.35015   0.00102945   9.29354e-05
3.35661   0.00102812   9.25761e-05
3.36306   0.00102679   9.22171e-05
3.36952   0.00102546   9.18585e-05
3.37597   0.00102412   9.15003e-05
3.38243   0.00102278   9.11424e-05
3.38888   0.00102145   9.0785e-05
3.39534   0.00102011   9.04279e-05
3.40179   0.00101876   9.00712e-05
3.40825   0.00101742   8.97149e-05
3.4147   0.00101607   8.9359e-05
3.42116   0.00101472   8.90036e-05
3.42761   0.00101337   8.86485e-05
3.43407   0.00101202   8.82938e-05
3.44052   0.00101066   8.79395e-05
3.44698   0.0010093   8.75856e-05
3.45343   0.00100794   8.72322e-05
3.45989   0.00100658   8.68791e-05
3.46634   0.00100522   8.65265e-05
3.4728   0.00100385   8.61743e-05
3.47925   0.00100248   8.58225e-05
3.48571   0.00100112   8.54712e-05
3.49216   0.000999743   8.51203e-05
3.49862   0.000998369   8.47698e-05
3.50507   0.000996993   8.44197e-05
3.51153   0.000995615   8.40701e-05
3.51798   0.000994234   8.3721e-05
3.52444   0.000992852   8.33722e-05
3.53089   0.000991468   8.3024e-05
3.53735   0.000990081   8.26761e-05
3.5438   0.000988692   8.23287e-05
3.55026   0.000987302   8.19818e-05
3.55671   0.000985909   8.16354e-05
3.56317   0.000984514   8.12894e-05
3.56962   0.000983117   8.09438e-05
3.57608   0.000981718   8.05987e-05
3.58253   0.000980317   8.02541e-05
3.58899   0.000978914   7.991e-05
3.59544   0.000977509   7.95663e-05
3.6019   0.000976101   7.92232e-05
3.60835   0.000974692   7.88805e-05
3.61481   0.00097328   7.85382e-05
3.62126   0.000971866   7.81965e-05
3.62772   0.00097045   7.78552e-05
3.63417   0.000969033   7.75145e-05
3.64063   0.000967613   7.71742e-05
3.64708   0.00096619   7.68344e-05
