# ColdTable(filename=input/LS_Gamma2_appended_ColdTable.input)
# rho_c = 0.00116
# r (iso) = 6.78871563810524
#[1] r (isotropic coords)
#[2] rho (baryon density)
#[3] P
0   0.00115999999971031   0.000155723838762485
0.00135801473056716   0.00115999994657523   0.000155723820144778
0.00271602946113432   0.00115999978630092   0.00015572376398716
0.00407404419170149   0.00115999951917712   0.000155723670391174
0.00543205892226865   0.0011599991452039   0.000155723539356883
0.00679007365283581   0.00115999866438136   0.000155723370884378
0.00814808838340297   0.00115999807670962   0.000155723164973774
0.00950610311397013   0.00115999738218884   0.000155722921625214
0.0108641178445373   0.00115999658081921   0.000155722640838865
0.0122221325751045   0.00115999567260092   0.000155722322614921
0.0135801473056716   0.00115999465753423   0.000155721966953599
0.0149381620362388   0.00115999353561939   0.000155721573855145
0.0162961767668059   0.00115999230685671   0.000155721143319831
0.0176541914973731   0.0011599909712465   0.000155720675347951
0.0190122062279403   0.00115998952878913   0.000155720169939828
0.0203702209585074   0.00115998797948496   0.00015571962709581
0.0217282356890746   0.00115998632333441   0.00015571904681627
0.0230862504196418   0.00115998456033791   0.000155718429101608
0.0244442651502089   0.00115998269049592   0.00015571777395225
0.0258022798807761   0.00115998071380894   0.000155717081368645
0.0271602946113432   0.00115997863027749   0.000155716351351271
0.0285183093419104   0.00115997643990212   0.00015571558390063
0.0298763240724776   0.0011599741426834   0.000155714779017251
0.0312343388030447   0.00115997173862193   0.000155713936701686
0.0325923535336119   0.00115996922771836   0.000155713056954517
0.0339503682641791   0.00115996660997333   0.000155712139776347
0.0353083829947462   0.00115996388538755   0.00015571118516781
0.0366663977253134   0.00115996105396172   0.000155710193129561
0.0380244124558805   0.00115995811569659   0.000155709163662283
0.0393824271864477   0.00115995507059293   0.000155708096766686
0.0407404419170149   0.00115995191865156   0.000155706992443502
0.042098456647582   0.00115994865987328   0.000155705850693493
0.0434564713781492   0.00115994529425897   0.000155704671517444
0.0448144861087163   0.00115994182180951   0.000155703454916166
0.0461725008392835   0.0011599382425258   0.000155702200890497
0.0475305155698507   0.0011599345564088   0.000155700909441299
0.0488885303004178   0.00115993076345948   0.000155699580569463
0.050246545030985   0.00115992686367882   0.000155698214275901
0.0516045597615522   0.00115992285706787   0.000155696810561555
0.0529625744921193   0.00115991874362766   0.00015569536942739
0.0543205892226865   0.00115991452335929   0.000155693890874398
0.0556786039532536   0.00115991019626386   0.000155692374903597
0.0570366186838208   0.00115990576234252   0.00015569082151603
0.058394633414388   0.00115990122159643   0.000155689230712765
0.0597526481449551   0.00115989657402678   0.000155687602494898
0.0611106628755223   0.00115989181963479   0.00015568593686355
0.0624686776060894   0.00115988695842173   0.000155684233819865
0.0638266923366566   0.00115988199038886   0.000155682493365017
0.0651847070672238   0.00115987691553749   0.000155680715500203
0.0665427217977909   0.00115987173386897   0.000155678900226645
0.0679007365283581   0.00115986644538464   0.000155677047545594
0.0692587512589253   0.00115986105008591   0.000155675157458325
0.0706167659894924   0.00115985554797419   0.000155673229966137
0.0719747807200596   0.00115984993905094   0.000155671265070357
0.0733327954506268   0.00115984422331762   0.000155669262772337
0.0746908101811939   0.00115983840077573   0.000155667223073455
0.0760488249117611   0.00115983247142682   0.000155665145975115
0.0774068396423282   0.00115982643527244   0.000155663031478745
0.0787648543728954   0.00115982029231419   0.0001556608795858
0.0801228691034626   0.00115981404255366   0.000155658690297762
0.0814808838340297   0.00115980768599252   0.000155656463616136
0.0828388985645969   0.00115980122263242   0.000155654199542454
0.084196913295164   0.00115979465247508   0.000155651898078274
0.0855549280257312   0.00115978797552221   0.000155649559225181
0.0869129427562984   0.00115978119177559   0.000155647182984782
0.0882709574868655   0.00115977430123698   0.000155644769358712
0.0896289722174327   0.00115976730390821   0.000155642318348633
0.0909869869479999   0.00115976019979111   0.000155639829956231
0.092345001678567   0.00115975298888755   0.000155637304183217
0.0937030164091342   0.00115974567119943   0.000155634741031329
0.0950610311397013   0.00115973824672867   0.00015563214050233
0.0964190458702685   0.00115973071547723   0.00015562950259801
0.0977770606008357   0.00115972307744709   0.000155626827320184
0.0991350753314028   0.00115971533264026   0.000155624114670691
0.10049309006197   0.00115970748105876   0.000155621364651397
0.101851104792537   0.00115969952270467   0.000155618577264196
0.103209119523104   0.00115969145758009   0.000155615752511003
0.104567134253671   0.00115968328568712   0.000155612890393762
0.105925148984239   0.00115967500702793   0.000155609990914442
0.107283163714806   0.00115966662160468   0.000155607054075037
0.108641178445373   0.00115965812941959   0.000155604079877568
0.10999919317594   0.00115964953047489   0.00015560106832408
0.111357207906507   0.00115964082477283   0.000155598019416645
0.112715222637074   0.00115963201231571   0.000155594933157359
0.114073237367642   0.00115962309310584   0.000155591809548346
0.115431252098209   0.00115961406714557   0.000155588648591755
0.116789266828776   0.00115960493443728   0.000155585450289758
0.118147281559343   0.00115959569498336   0.000155582214644556
0.11950529628991   0.00115958634878624   0.000155578941658374
0.120863311020477   0.00115957689584839   0.000155575631333464
0.122221325751045   0.00115956733617228   0.000155572283672102
0.123579340481612   0.00115955766976043   0.00015556889867659
0.124937355212179   0.00115954789661538   0.000155565476349256
0.126295369942746   0.00115953801673971   0.000155562016692454
0.127653384673313   0.001159528030136   0.000155558519708562
0.12901139940388   0.00115951793680689   0.000155554985399987
0.130369414134448   0.00115950773675503   0.000155551413769157
0.131727428865015   0.00115949742998309   0.00015554780481853
0.133085443595582   0.0011594870164938   0.000155544158550587
0.134443458326149   0.00115947649628987   0.000155540474967835
0.135801473056716   0.0011594658693741   0.000155536754072807
0.137159487787283   0.00115945513575931   0.000155532995868061
0.138517502517851   0.00115944429537598   0.000155529200356183
0.139875517248418   0.00115943334787129   0.00015552536753978
0.141233531978985   0.00115942229464847   0.00015552149742149
0.142591546709552   0.00115941113421952   0.000155517590003972
0.143949561440119   0.00115939986708879   0.000155513645289912
0.145307576170686   0.00115938849326979   0.000155509663282025
0.146665590901254   0.00115937701276206   0.000155505643983045
0.148023605631821   0.00115936542556863   0.000155501587395738
0.149381620362388   0.00115935373169252   0.000155497493522892
0.150739635092955   0.00115934193113683   0.000155493362367321
0.152097649823522   0.00115933002390465   0.000155489193931865
0.153455664554089   0.0011593180099991   0.00015548498821939
0.154813679284656   0.00115930588942336   0.000155480745232787
0.156171694015224   0.00115929366218059   0.000155476464974972
0.157529708745791   0.00115928132827402   0.000155472147448888
0.158887723476358   0.00115926888770688   0.000155467792657502
0.160245738206925   0.00115925634048245   0.000155463400603807
0.161603752937492   0.00115924368660403   0.000155458971290823
0.162961767668059   0.00115923092607492   0.000155454504721594
0.164319782398627   0.0011592180588985   0.00015545000089919
0.165677797129194   0.00115920508507813   0.000155445459826705
0.167035811859761   0.00115919200461724   0.000155440881507262
0.168393826590328   0.00115917881751925   0.000155436265944006
0.169751841320895   0.00115916552378763   0.00015543161314011
0.171109856051462   0.00115915212342587   0.000155426923098771
0.17246787078203   0.00115913861643749   0.000155422195823211
0.173825885512597   0.00115912500282604   0.000155417431316681
0.175183900243164   0.0011591112825951   0.000155412629582453
0.176541914973731   0.00115909745574826   0.000155407790623827
0.177899929704298   0.00115908352228917   0.000155402914444128
0.179257944434865   0.00115906948222148   0.000155398001046707
0.180615959165433   0.00115905533554889   0.000155393050434939
0.181973973896   0.00115904108227509   0.000155388062612227
0.183331988626567   0.00115902672240385   0.000155383037581997
0.184690003357134   0.00115901225593892   0.000155377975347701
0.186048018087701   0.00115899768288411   0.000155372875912817
0.187406032818268   0.00115898300324325   0.00015536773928085
0.188764047548836   0.00115896821702019   0.000155362565455326
0.190122062279403   0.00115895332421882   0.000155357354439802
0.19148007700997   0.00115893832484304   0.000155352106237856
0.192838091740537   0.00115892321889679   0.000155346820853094
0.194196106471104   0.00115890800638405   0.000155341498289146
0.195554121201671   0.00115889268730879   0.000155336138549669
0.196912135932238   0.00115887726167506   0.000155330741638343
0.198270150662806   0.00115886172948689   0.000155325307558877
0.199628165393373   0.00115884609074836   0.000155319836315001
0.20098618012394   0.00115883034546359   0.000155314327910474
0.202344194854507   0.0011588144936367   0.000155308782349078
0.203702209585074   0.00115879853527185   0.000155303199634624
0.205060224315641   0.00115878247037324   0.000155297579770943
0.206418239046209   0.00115876629894508   0.000155291922761897
0.207776253776776   0.00115875002099161   0.000155286228611368
0.209134268507343   0.00115873363651711   0.000155280497323269
0.21049228323791   0.00115871714552589   0.000155274728901534
0.211850297968477   0.00115870054802226   0.000155268923350123
0.213208312699044   0.00115868384401058   0.000155263080673024
0.214566327429612   0.00115866703349524   0.000155257200874247
0.215924342160179   0.00115865011648065   0.000155251283957831
0.217282356890746   0.00115863309297125   0.000155245329927837
0.218640371621313   0.0011586159629715   0.000155239338788353
0.21999838635188   0.00115859872648591   0.000155233310543491
0.221356401082447   0.00115858138351899   0.000155227245197392
0.222714415813015   0.00115856393407529   0.000155221142754217
0.224072430543582   0.0011585463781594   0.000155215003218157
0.225430445274149   0.00115852871577592   0.000155208826593425
0.226788460004716   0.00115851094692947   0.000155202612884261
0.228146474735283   0.00115849307162474   0.000155196362094931
0.22950448946585   0.0011584750898664   0.000155190074229724
0.230862504196418   0.00115845700165917   0.000155183749292957
0.232220518926985   0.00115843880700779   0.00015517738728897
0.233578533657552   0.00115842050591705   0.000155170988222129
0.234936548388119   0.00115840209839173   0.000155164552096826
0.236294563118686   0.00115838358443668   0.000155158078917477
0.237652577849253   0.00115836496405673   0.000155151568688526
0.23901059257982   0.00115834623725679   0.000155145021414438
0.240368607310388   0.00115832740404175   0.000155138437099708
0.241726622040955   0.00115830846441656   0.000155131815748851
0.243084636771522   0.00115828941838618   0.000155125157366413
0.244442651502089   0.00115827026595562   0.00015511846195696
0.245800666232656   0.00115825100712988   0.000155111729525087
0.247158680963224   0.00115823164191403   0.000155104960075412
0.248516695693791   0.00115821217031313   0.00015509815361258
0.249874710424358   0.0011581925923323   0.000155091310141259
0.251232725154925   0.00115817290797667   0.000155084429666145
0.252590739885492   0.00115815311725139   0.000155077512191956
0.253948754616059   0.00115813322016166   0.000155070557723439
0.255306769346626   0.00115811321671269   0.000155063566265363
0.256664784077194   0.00115809310690972   0.000155056537822522
0.258022798807761   0.00115807289075804   0.000155049472399739
0.259380813538328   0.00115805256826293   0.000155042370001858
0.260738828268895   0.00115803213942972   0.000155035230633751
0.262096842999462   0.00115801160426377   0.000155028054300313
0.263454857730029   0.00115799096277045   0.000155020841006465
0.264812872460597   0.00115797021495519   0.000155013590757155
0.266170887191164   0.00115794936082341   0.000155006303557353
0.267528901921731   0.00115792840038058   0.000154998979412056
0.268886916652298   0.00115790733363219   0.000154991618326285
0.270244931382865   0.00115788616058377   0.000154984220305089
0.271602946113432   0.00115786488124086   0.000154976785353538
0.272960960844   0.00115784349560903   0.00015496931347673
0.274318975574567   0.00115782200369389   0.000154961804679787
0.275676990305134   0.00115780040550107   0.000154954258967857
0.277035005035701   0.00115777870103622   0.000154946676346111
0.278393019766268   0.00115775689030504   0.000154939056819748
0.279751034496835   0.00115773497331324   0.00015493140039399
0.281109049227403   0.00115771295006655   0.000154923707074085
0.28246706395797   0.00115769082057074   0.000154915976865305
0.283825078688537   0.00115766858483162   0.000154908209772949
0.285183093419104   0.001157646242855   0.000154900405802339
0.286541108149671   0.00115762379464673   0.000154892564958824
0.287899122880238   0.0011576012402127   0.000154884687247776
0.289257137610806   0.00115757857955881   0.000154876772674593
0.290615152341373   0.00115755581269099   0.000154868821244699
0.29197316707194   0.00115753293961521   0.000154860832963541
0.293331181802507   0.00115750996033745   0.000154852807836593
0.294689196533074   0.00115748687486373   0.000154844745869352
0.296047211263641   0.00115746368320009   0.000154836647067343
0.297405225994208   0.00115744038535261   0.000154828511436112
0.298763240724776   0.00115741698132739   0.000154820338981234
0.300121255455343   0.00115739347113054   0.000154812129708305
0.30147927018591   0.00115736985476822   0.00015480388362295
0.302837284916477   0.00115734613224662   0.000154795600730817
0.304195299647044   0.00115732230357194   0.000154787281037577
0.305553314377611   0.00115729836875043   0.00015477892454893
0.306911329108179   0.00115727432778833   0.000154770531270598
0.308269343838746   0.00115725018069195   0.000154762101208328
0.309627358569313   0.00115722592746761   0.000154753634367895
0.31098537329988   0.00115720156812164   0.000154745130755094
0.312343388030447   0.00115717710266042   0.00015473659037575
0.313701402761014   0.00115715253109036   0.000154728013235709
0.315059417491582   0.00115712785341788   0.000154719399340844
0.316417432222149   0.00115710306964944   0.000154710748697052
0.317775446952716   0.00115707817979152   0.000154702061310255
0.319133461683283   0.00115705318385063   0.000154693337186401
0.32049147641385   0.00115702808183331   0.000154684576331461
0.321849491144417   0.00115700287374612   0.000154675778751432
0.323207505874985   0.00115697755959566   0.000154666944452336
0.324565520605552   0.00115695213938855   0.000154658073440219
0.325923535336119   0.00115692661313143   0.000154649165721153
0.327281550066686   0.00115690098083099   0.000154640221301234
0.328639564797253   0.00115687524249392   0.000154631240186583
0.32999757952782   0.00115684939812695   0.000154622222383345
0.331355594258388   0.00115682344773684   0.000154613167897691
0.332713608988955   0.00115679739133037   0.000154604076735818
0.334071623719522   0.00115677122891436   0.000154594948903944
0.335429638450089   0.00115674496049565   0.000154585784408315
0.336787653180656   0.0011567185860811   0.000154576583255201
0.338145667911223   0.0011566921056776   0.000154567345450896
0.339503682641791   0.00115666551929208   0.00015455807100172
0.340861697372358   0.00115663882693148   0.000154548759914016
0.342219712102925   0.00115661202860279   0.000154539412194154
0.343577726833492   0.001156585124313   0.000154530027848527
0.344935741564059   0.00115655811406914   0.000154520606883553
0.346293756294626   0.00115653099787828   0.000154511149305676
0.347651771025194   0.00115650377574749   0.000154501655121363
0.349009785755761   0.00115647644768389   0.000154492124337106
0.350367800486328   0.00115644901369462   0.000154482556959422
0.351725815216895   0.00115642147378685   0.000154472952994855
0.353083829947462   0.00115639382796776   0.000154463312449969
0.354441844678029   0.00115636607624459   0.000154453635331356
0.355799859408596   0.00115633821862458   0.000154443921645632
0.357157874139164   0.001156310255115   0.000154434171399437
0.358515888869731   0.00115628218572315   0.000154424384599437
0.359873903600298   0.00115625401045638   0.000154414561252321
0.361231918330865   0.00115622572932203   0.000154404701364804
0.362589933061432   0.0011561973423275   0.000154394804943625
0.363947947791999   0.00115616884948018   0.000154384871995547
0.365305962522567   0.00115614025078753   0.000154374902527358
0.366663977253134   0.00115611154625701   0.000154364896545872
0.368021991983701   0.0011560827358961   0.000154354854057926
0.369380006714268   0.00115605381971234   0.000154344775070382
0.370738021444835   0.00115602479771327   0.000154334659590126
0.372096036175402   0.00115599566990646   0.000154324507624069
0.37345405090597   0.00115596643629952   0.000154314319179147
0.374812065636537   0.00115593709690007   0.000154304094262321
0.376170080367104   0.00115590765171578   0.000154293832880575
0.377528095097671   0.00115587810075432   0.000154283535040919
0.378886109828238   0.00115584844402341   0.000154273200750385
0.380244124558805   0.00115581868153079   0.000154262830016033
0.381602139289373   0.00115578881328421   0.000154252422844946
0.38296015401994   0.00115575883929148   0.000154241979244229
0.384318168750507   0.0011557287595604   0.000154231499221016
0.385676183481074   0.00115569857409883   0.000154220982782463
0.387034198211641   0.00115566828291465   0.00015421042993575
0.388392212942208   0.00115563788601574   0.000154199840688082
0.389750227672776   0.00115560738341004   0.00015418921504669
0.391108242403343   0.0011555767751055   0.000154178553018826
0.39246625713391   0.00115554606111011   0.00015416785461177
0.393824271864477   0.00115551524143187   0.000154157119832825
0.395182286595044   0.00115548431607882   0.000154146348689317
0.396540301325611   0.00115545328505902   0.000154135541188598
0.397898316056178   0.00115542214838056   0.000154124697338045
0.399256330786746   0.00115539090605156   0.000154113817145058
0.400614345517313   0.00115535955808016   0.000154102900617062
0.40197236024788   0.00115532810447453   0.000154091947761505
0.403330374978447   0.00115529654524287   0.000154080958585862
0.404688389709014   0.00115526488039341   0.00015406993309763
0.406046404439581   0.00115523310993439   0.000154058871304332
0.407404419170149   0.0011552012338741   0.000154047773213513
0.408762433900716   0.00115516925222084   0.000154036638832745
0.410120448631283   0.00115513716498294   0.000154025468169624
0.41147846336185   0.00115510497216877   0.000154014261231768
0.412836478092417   0.00115507267378671   0.00015400301802682
0.414194492822984   0.00115504026984517   0.00015399173856245
0.415552507553552   0.00115500776035259   0.000153980422846349
0.416910522284119   0.00115497514531745   0.000153969070886235
0.418268537014686   0.00115494242474823   0.000153957682689846
0.419626551745253   0.00115490959865346   0.00015394625826495
0.42098456647582   0.00115487666704168   0.000153934797619334
0.422342581206387   0.00115484362992147   0.000153923300760813
0.423700595936955   0.00115481048730144   0.000153911767697223
0.425058610667522   0.0011547772391902   0.000153900198436427
0.426416625398089   0.00115474388559642   0.000153888592986312
