# ColdTable(filename=input/HShen_ColdTable.input)
# rho_c = 0.000814
# r (iso) = 9.0248588017931
#[1] r (isotropic coords)
#[2] rho (baryon density)
#[3] P
0   0.000813999999859366   9.46729891448331e-05
0.001805332826924   0.000813999954164171   9.46729749293179e-05
0.00361066565384801   0.0008139998166567   9.46729321515327e-05
0.00541599848077201   0.000813999587477622   9.46728608552628e-05
0.00722133130769602   0.000813999266627002   9.46727610405664e-05
0.00902666413462002   0.000813998854104928   9.46726327075247e-05
0.010831996961544   0.000813998349911512   9.46724758562425e-05
0.012637329788468   0.000813997754046895   9.46722904868478e-05
0.014442662615392   0.00081399706651124   9.46720765994915e-05
0.016247995442316   0.000813996287304737   9.46718341943482e-05
0.01805332826924   0.000813995416427599   9.46715632716156e-05
0.019858661096164   0.000813994453880069   9.46712638315148e-05
0.0216639939230881   0.000813993399662408   9.46709358742894e-05
0.0234693267500121   0.000813992253774909   9.46705794002073e-05
0.0252746595769361   0.000813991016217887   9.46701944095592e-05
0.0270799924038601   0.000813989686991684   9.46697809026591e-05
0.0288853252307841   0.000813988266096663   9.46693388798438e-05
0.0306906580577081   0.000813986753533217   9.46688683414739e-05
0.0324959908846321   0.000813985149301764   9.46683692879333e-05
0.0343013237115561   0.000813983453402743   9.4667841719629e-05
0.0361066565384801   0.000813981665836622   9.4667285636991e-05
0.0379119893654041   0.000813979786603895   9.46667010404727e-05
0.0397173221923281   0.000813977815705077   9.46660879305509e-05
0.0415226550192521   0.000813975753140712   9.46654463077257e-05
0.0433279878461761   0.000813973598911368   9.46647761725203e-05
0.0451333206731001   0.000813971353017638   9.46640775254807e-05
0.0469386535000241   0.000813969015460139   9.4663350367177e-05
0.0487439863269481   0.000813966586239518   9.46625946982022e-05
0.0505493191538721   0.00081396406535644   9.46618105191723e-05
0.0523546519807961   0.000813961452811602   9.46609978307268e-05
0.0541599848077201   0.000813958748605723   9.46601566335281e-05
0.0559653176346441   0.000813955952739546   9.46592869282626e-05
0.0577706504615681   0.000813953065213843   9.46583887156392e-05
0.0595759832884921   0.000813950086029407   9.46574619963904e-05
0.0613813161154161   0.000813947015187059   9.46565067712715e-05
0.0631866489423401   0.000813943852687645   9.46555230410617e-05
0.0649919817692642   0.000813940598532037   9.46545108065631e-05
0.0667973145961882   0.000813937252721128   9.46534700686011e-05
0.0686026474231122   0.000813933815255842   9.46524008280238e-05
0.0704079802500362   0.000813930286137123   9.46513030857035e-05
0.0722133130769602   0.000813926665365944   9.46501768425352e-05
0.0740186459038842   0.000813922952943303   9.46490220994372e-05
0.0758239787308082   0.000813919148870219   9.46478388573507e-05
0.0776293115577322   0.000813915253147742   9.46466271172404e-05
0.0794346443846562   0.000813911265776943   9.46453868800947e-05
0.0812399772115802   0.000813907186758922   9.46441181469247e-05
0.0830453100385042   0.0008139030160948   9.46428209187645e-05
0.0848506428654282   0.000813898753785725   9.46414951966718e-05
0.0866559756923522   0.000813894399832872   9.46401409817275e-05
0.0884613085192762   0.000813889954237438   9.46387582750358e-05
0.0902666413462002   0.000813885417000648   9.4637347077724e-05
0.0920719741731242   0.000813880788123751   9.46359073909422e-05
0.0938773070000482   0.00081387606760802   9.46344392158645e-05
0.0956826398269722   0.000813871255454756   9.46329425536877e-05
0.0974879726538962   0.000813866351687675   9.46314174056321e-05
0.0992933054808202   0.000813861355555371   9.46298637729407e-05
0.101098638307744   0.000813856269229626   9.46282816568801e-05
0.102903971134668   0.000813851090493235   9.46266710587403e-05
0.104709303961592   0.000813845820172677   9.46250319798343e-05
0.106514636788516   0.000813840458222912   9.46233644214981e-05
0.10831996961544   0.000813835004645416   9.46216683850908e-05
0.110125302442364   0.000813829459441688   9.46199438719952e-05
0.111930635269288   0.000813823822613257   9.46181908836172e-05
0.113735968096212   0.000813818094161672   9.46164094213858e-05
0.115541300923136   0.000813812274088513   9.46145994867526e-05
0.11734663375006   0.000813806362395378   9.46127610811932e-05
0.119151966576984   0.000813800359083896   9.46108942062063e-05
0.120957299403908   0.000813794264155719   9.46089988633136e-05
0.122762632230832   0.000813788077612525   9.46070750540597e-05
0.124567965057756   0.000813781799456016   9.46051227800126e-05
0.12637329788468   0.00081377542968792   9.46031420427638e-05
0.128178630711604   0.000813768968309989   9.46011328439278e-05
0.129983963538528   0.000813762415324003   9.45990951851419e-05
0.131789296365452   0.000813755770731762   9.45970290680667e-05
0.133594629192376   0.000813749034535099   9.45949344943865e-05
0.1353999620193   0.000813742206735864   9.45928114658083e-05
0.137205294846224   0.000813735287335938   9.45906599840625e-05
0.139010627673148   0.000813728276337223   9.45884800509019e-05
0.140815960500072   0.000813721173741649   9.45862716681035e-05
0.142621293326996   0.000813713979551172   9.45840348374672e-05
0.14442662615392   0.000813706693767769   9.45817695608156e-05
0.146231958980844   0.000813699316393445   9.45794758399948e-05
0.148037291807768   0.000813691847430231   9.45771536768738e-05
0.149842624634692   0.000813684286880182   9.45748030733451e-05
0.151647957461616   0.000813676634745376   9.45724240313242e-05
0.15345329028854   0.00081366889102792   9.45700165527497e-05
0.155258623115464   0.000813661055729943   9.4567580639583e-05
0.157063955942388   0.000813653128853602   9.45651162938093e-05
0.158869288769312   0.000813645110401078   9.45626235174366e-05
0.160674621596236   0.000813637000374574   9.45601023124961e-05
0.16247995442316   0.000813628798776324   9.45575526810416e-05
0.164285287250084   0.000813620505608582   9.45549746251507e-05
0.166090620077008   0.000813612120873631   9.45523681469241e-05
0.167895952903932   0.000813603644573775   9.45497332484853e-05
0.169701285730856   0.000813595076711348   9.4547069931981e-05
0.17150661855778   0.000813586417288704   9.45443781995807e-05
0.173311951384704   0.000813577666308226   9.45416580534778e-05
0.175117284211628   0.000813568823772321   9.45389094958882e-05
0.176922617038552   0.000813559889683421   9.45361325290511e-05
0.178727949865476   0.000813550864043981   9.45333271552283e-05
0.1805332826924   0.000813541746856486   9.45304933767055e-05
0.182338615519324   0.000813532538123442   9.45276311957912e-05
0.184143948346248   0.000813523237847381   9.45247406148169e-05
0.185949281173172   0.000813513846030861   9.45218216361368e-05
0.187754614000096   0.000813504362676464   9.45188742621287e-05
0.18955994682702   0.000813494787786798   9.45158984951936e-05
0.191365279653944   0.000813485121364495   9.45128943377553e-05
0.193170612480868   0.000813475363412215   9.45098617922604e-05
0.194975945307792   0.000813465513932638   9.45068008611787e-05
0.196781278134716   0.000813455572928474   9.45037115470037e-05
0.19858661096164   0.000813445540402455   9.45005938522513e-05
0.200391943788564   0.00081343541635734   9.44974477794606e-05
0.202197276615488   0.000813425200795911   9.44942733311935e-05
0.204002609442412   0.000813414893720977   9.44910705100354e-05
0.205807942269336   0.000813404495135372   9.44878393185948e-05
0.20761327509626   0.000813394005041954   9.44845797595028e-05
0.209418607923185   0.000813383423443606   9.44812918354136e-05
0.211223940750109   0.000813372750343237   9.44779755490047e-05
0.213029273577032   0.00081336198574378   9.44746309029765e-05
0.214834606403957   0.000813351129648194   9.44712579000525e-05
0.216639939230881   0.000813340182059463   9.4467856542979e-05
0.218445272057805   0.000813329142980595   9.44644268345254e-05
0.220250604884729   0.000813318012414625   9.44609687774842e-05
0.222055937711653   0.00081330679036461   9.44574823746711e-05
0.223861270538577   0.000813295476833636   9.44539676289245e-05
0.225666603365501   0.00081328407182481   9.44504245431054e-05
0.227471936192425   0.000813272575341267   9.44468531200987e-05
0.229277269019349   0.000813260987386165   9.4443253362812e-05
0.231082601846273   0.000813249307962689   9.44396252741756e-05
0.232887934673197   0.000813237537074048   9.44359688571427e-05
0.234693267500121   0.000813225674723475   9.44322841146898e-05
0.236498600327045   0.00081321372091423   9.44285710498165e-05
0.238303933153969   0.000813201675649596   9.44248296655451e-05
0.240109265980893   0.000813189538932883   9.44210599649208e-05
0.241914598807817   0.000813177310767424   9.44172619510117e-05
0.243719931634741   0.000813164991156579   9.44134356269093e-05
0.245525264461665   0.000813152580103731   9.44095809957278e-05
0.247330597288589   0.00081314007761229   9.44056980606043e-05
0.249135930115513   0.000813127483685689   9.44017868246987e-05
0.250941262942437   0.000813114798327387   9.4397847291194e-05
0.252746595769361   0.000813102021540869   9.43938794632965e-05
0.254551928596285   0.000813089153329643   9.43898833442349e-05
0.256357261423209   0.000813076193697243   9.43858589372608e-05
0.258162594250133   0.000813063142647228   9.43818062456489e-05
0.259967927077057   0.00081305000018318   9.43777252726971e-05
0.261773259903981   0.000813036766308711   9.4373616021726e-05
0.263578592730905   0.000813023441027454   9.43694784960788e-05
0.265383925557829   0.000813010024343065   9.43653126991217e-05
0.267189258384753   0.000812996516259229   9.43611186342442e-05
0.268994591211677   0.000812982916779655   9.43568963048584e-05
0.270799924038601   0.000812969225908077   9.43526457143995e-05
0.272605256865525   0.000812955443648252   9.43483668663248e-05
0.274410589692449   0.000812941570003964   9.43440597641155e-05
0.276215922519373   0.000812927604979021   9.43397244112753e-05
0.278021255346297   0.000812913548577257   9.43353608113306e-05
0.279826588173221   0.000812899400802529   9.43309689678307e-05
0.281631921000145   0.00081288516165872   9.43265488843476e-05
0.283437253827069   0.000812870831149738   9.43221005644768e-05
0.285242586653993   0.000812856409279517   9.4317624011836e-05
0.287047919480917   0.000812841896052013   9.43131192300661e-05
0.288853252307841   0.00081282729147121   9.43085862228302e-05
0.290658585134765   0.000812812595541114   9.43040249938151e-05
0.292463917961689   0.000812797808265758   9.42994355467301e-05
0.294269250788613   0.0008127829296492   9.42948178853072e-05
0.296074583615537   0.00081276795969552   9.42901720133009e-05
0.297879916442461   0.000812752898408828   9.42854979344892e-05
0.299685249269385   0.000812737745793254   9.42807956526725e-05
0.301490582096309   0.000812722501852955   9.42760651716742e-05
0.303295914923233   0.000812707166592112   9.42713064953401e-05
0.305101247750157   0.000812691740014932   9.42665196275389e-05
0.306906580577081   0.000812676222125646   9.42617045721626e-05
0.308711913404005   0.00081266061292851   9.42568613331255e-05
0.310517246230929   0.000812644912427806   9.42519899143647e-05
0.312322579057853   0.000812629120627838   9.42470903198399e-05
0.314127911884777   0.000812613237532938   9.42421625535339e-05
0.315933244711701   0.000812597263147461   9.42372066194523e-05
0.317738577538625   0.000812581197475788   9.42322225216231e-05
0.319543910365549   0.000812565040522322   9.42272102640972e-05
0.321349243192473   0.000812548792291494   9.42221698509481e-05
0.323154576019397   0.000812532452787759   9.42171012862724e-05
0.324959908846321   0.000812516022015597   9.42120045741891e-05
0.326765241673245   0.000812499499979511   9.42068797188401e-05
0.328570574500169   0.00081248288668403   9.42017267243894e-05
0.330375907327093   0.000812466182133708   9.41965455950246e-05
0.332181240154017   0.000812449386333125   9.41913363349557e-05
0.333986572980941   0.000812432499286883   9.41860989484153e-05
0.335791905807865   0.00081241552099961   9.41808334396581e-05
0.337597238634789   0.000812398451475959   9.41755398129625e-05
0.339402571461713   0.000812381290720609   9.41702180726292e-05
0.341207904288637   0.00081236403873826   9.41648682229814e-05
0.343013237115561   0.000812346695533642   9.41594902683649e-05
0.344818569942485   0.000812329261111504   9.41540842131481e-05
0.346623902769409   0.000812311735476625   9.41486500617227e-05
0.348429235596333   0.000812294118633806   9.41431878185025e-05
0.350234568423257   0.000812276410587872   9.41376974879239e-05
0.352039901250181   0.000812258611343673   9.41321790744457e-05
0.353845234077105   0.000812240720906087   9.41266325825501e-05
0.355650566904029   0.000812222739280013   9.41210580167414e-05
0.357455899730953   0.000812204666470377   9.41154553815466e-05
0.359261232557877   0.000812186502482126   9.4109824681515e-05
0.361066565384801   0.000812168247320237   9.4104165921219e-05
0.362871898211725   0.000812149900989707   9.40984791052534e-05
0.364677231038649   0.000812131463495563   9.40927642382355e-05
0.366482563865573   0.000812112934842849   9.40870213248051e-05
0.368287896692497   0.000812094315036641   9.40812503696246e-05
0.370093229519421   0.000812075604082035   9.40754513773793e-05
0.371898562346345   0.000812056801984155   9.40696243527768e-05
0.373703895173269   0.000812037908748147   9.40637693005472e-05
0.375509228000193   0.000812018924379183   9.40578862254427e-05
0.377314560827117   0.000811999848882459   9.40519751322391e-05
0.379119893654041   0.000811980682263197   9.4046036025734e-05
0.380925226480965   0.00081196142452664   9.40400689107476e-05
0.382730559307889   0.000811942075678061   9.40340737921226e-05
0.384535892134813   0.000811922635722754   9.40280506747243e-05
0.386341224961737   0.000811903104666038   9.40219995634405e-05
0.388146557788661   0.000811883482513256   9.40159204631816e-05
0.389951890615585   0.00081186376926978   9.40098133788802e-05
0.391757223442509   0.000811843964941   9.40036783154913e-05
0.393562556269433   0.000811824069532335   9.39975152779929e-05
0.395367889096357   0.000811804083049228   9.39913242713851e-05
0.397173221923281   0.000811784005497144   9.39851053006906e-05
0.398978554750205   0.000811763836881577   9.39788583709541e-05
0.400783887577129   0.000811743577208041   9.39725834872433e-05
0.402589220404053   0.000811723226482078   9.39662806546483e-05
0.404394553230977   0.000811702784709253   9.39599498782813e-05
0.406199886057901   0.000811682251895156   9.3953591163277e-05
0.408005218884825   0.000811661628045401   9.39472045147924e-05
0.409810551711749   0.000811640913165626   9.39407899380075e-05
0.411615884538673   0.000811620107261495   9.39343474381242e-05
0.413421217365597   0.000811599210338697   9.39278770203667e-05
0.415226550192521   0.000811578222402943   9.39213786899816e-05
0.417031883019445   0.00081155714345997   9.39148524522382e-05
0.418837215846369   0.00081153597351554   9.39082983124282e-05
0.420642548673293   0.000811514712575439   9.39017162758653e-05
0.422447881500217   0.000811493360645477   9.38951063478853e-05
0.424253214327141   0.000811471917731488   9.38884685338471e-05
0.426058547154065   0.000811450383839333   9.38818028391316e-05
0.427863879980989   0.000811428758974896   9.3875109269142e-05
0.429669212807913   0.000811407043144084   9.38683878293036e-05
0.431474545634837   0.000811385236352829   9.38616385250641e-05
0.433279878461761   0.00081136333860709   9.3854861361894e-05
0.435085211288685   0.000811341349912848   9.38480563452856e-05
0.436890544115609   0.000811319270276108   9.38412234807537e-05
0.438695876942533   0.000811297099702903   9.38343627738348e-05
0.440501209769457   0.000811274838199285   9.38274742300885e-05
0.442306542596381   0.000811252485771336   9.38205578550964e-05
0.444111875423305   0.000811230042425158   9.38136136544623e-05
0.445917208250229   0.00081120750816688   9.3806641633812e-05
0.447722541077153   0.000811184883002653   9.37996417987936e-05
0.449527873904077   0.000811162166938656   9.37926141550779e-05
0.451333206731001   0.000811139359981089   9.37855587083577e-05
0.453138539557925   0.000811116462136179   9.37784754643477e-05
0.454943872384849   0.000811093473410174   9.37713644287848e-05
0.456749205211773   0.00081107039380935   9.37642256074286e-05
0.458554538038697   0.000811047223340005   9.37570590060607e-05
0.460359870865621   0.000811023962008463   9.37498646304848e-05
0.462165203692545   0.00081100060982107   9.37426424865264e-05
0.463970536519469   0.000810977166784199   9.37353925800336e-05
0.465775869346393   0.000810953632904246   9.37281149168769e-05
0.467581202173317   0.00081093000818763   9.37208095029485e-05
0.469386535000241   0.000810906292640798   9.37134763441628e-05
0.471191867827165   0.000810882486270218   9.37061154464561e-05
0.472997200654089   0.000810858589082382   9.36987268157876e-05
0.474802533481013   0.00081083460108381   9.3691310458138e-05
0.476607866307937   0.000810810522281043   9.36838663795102e-05
0.478413199134861   0.000810786352680646   9.36763945859289e-05
0.480218531961785   0.00081076209228921   9.36688950834415e-05
0.482023864788709   0.000810737741113352   9.36613678781172e-05
0.483829197615633   0.000810713299159707   9.36538129760474e-05
0.485634530442557   0.000810688766434942   9.36462303833451e-05
0.487439863269481   0.000810664142945741   9.36386201061456e-05
0.489245196096405   0.000810639428698818   9.36309821506066e-05
0.491050528923329   0.000810614623700908   9.36233165229075e-05
0.492855861750253   0.000810589727958773   9.36156232292498e-05
0.494661194577177   0.000810564741479194   9.36079022758565e-05
0.496466527404101   0.000810539664268981   9.36001536689736e-05
0.498271860231025   0.000810514496334968   9.35923774148684e-05
0.500077193057949   0.00081048923768401   9.35845735198306e-05
0.501882525884873   0.000810463888322989   9.35767419901711e-05
0.503687858711797   0.00081043844825881   9.35688828322237e-05
0.505493191538721   0.000810412917498403   9.35609960523438e-05
0.507298524365645   0.000810387296048721   9.35530816569087e-05
0.509103857192569   0.000810361583916742   9.35451396523176e-05
0.510909190019493   0.000810335781109467   9.35371700449915e-05
0.512714522846417   0.000810309887633922   9.35291728413738e-05
0.514519855673341   0.000810283903497159   9.35211480479296e-05
0.516325188500265   0.000810257828706251   9.35130956711458e-05
0.518130521327189   0.000810231663268295   9.35050157175309e-05
0.519935854154113   0.000810205407190415   9.3496908193616e-05
0.521741186981037   0.000810179060479758   9.34887731059536e-05
0.523546519807961   0.000810152623143493   9.34806104611183e-05
0.525351852634885   0.000810126095188815   9.34724202657061e-05
0.527157185461809   0.000810099476622944   9.34642025263352e-05
0.528962518288733   0.000810072767453121   9.3455957249646e-05
0.530767851115657   0.000810045967686615   9.34476844423001e-05
0.532573183942581   0.000810019077330715   9.34393841109813e-05
0.534378516769505   0.000809992096392736   9.34310562623947e-05
0.536183849596429   0.000809965024880019   9.34227009032679e-05
0.537989182423353   0.000809937862799924   9.34143180403499e-05
0.539794515250277   0.000809910610159841   9.34059076804117e-05
0.541599848077201   0.000809883266967178   9.33974698302455e-05
0.543405180904125   0.000809855833229373   9.33890044966659e-05
0.545210513731049   0.000809828308953882   9.33805116865091e-05
0.547015846557973   0.00080980069414819   9.33719914066331e-05
0.548821179384897   0.000809772988819804   9.33634436639173e-05
0.550626512211821   0.000809745192976253   9.33548684652628e-05
0.552431845038745   0.000809717306625094   9.33462658175929e-05
0.554237177865669   0.000809689329773904   9.33376357278524e-05
0.556042510692593   0.000809661262430286   9.33289782030078e-05
0.557847843519517   0.000809633104601869   9.33202932500468e-05
