# PlotEOS table, 3.8.12
# ColdTable(filename=input/HS_ColdTable.dat)
# T=0.01MeV, Ye neutrinoless beta-equilibrium
# Units are geometric, with M_sol=1.
# Conversion to cgs: rhoscale=6.177e17, Energypermassscale=8.989e20, Pscale=5.552e38
# [1] rho
# [2] eps, specific energy (E/rho)
# [3] P
# [4] dP/drho
# [5] h, specific enthalpy (1+eps+P/rho)
# [6] cs, adiabatic relativistic sound speed (nonrelcs/sqrt(h))
1e-10  -0.00235726903381853  1.78006884311661e-14  0.000243662815803653  0.997820737850493  0.0156743034174421  
1.01861017015598e-10  -0.00235405110743952  1.82556064323886e-14  0.000245182439162311  0.997825169628493  0.0157244180170399  
1.03756667874518e-10  -0.00235081658303509  1.87218476082899e-14  0.00024674677858009  0.997829623363542  0.0157744710326378  
1.05687597118481e-10  -0.00234755621498045  1.91999297865326e-14  0.000248451612533041  0.997834110606009  0.0158256388280445  
1.07654461284231e-10  -0.00234427738175891  1.96898280302234e-14  0.000249838055255425  0.997838621011818  0.0158769185624595  
1.09657929126781e-10  -0.00234097134644607  2.01922825361926e-14  0.000251817405851618  0.997843167481425  0.0159281922963252  
1.11698681846782e-10  -0.00233763223089026  2.07078838710185e-14  0.000253489147472769  0.997847758353212  0.0159796221851002  
1.13777413322149e-10  -0.00233427201785567  2.12364873567e-14  0.000255144589203234  0.997852377394683  0.016030947435377  
1.15894830343981e-10  -0.00233089344606899  2.17782186165162e-14  0.000256531079487504  0.997857020186937  0.0160820812521428  
1.1805165285688e-10  -0.00232749690182023  2.23333622912585e-14  0.000258178045357044  0.997861686068098  0.0161330200727979  
1.20248614203741e-10  -0.00232407911158735  2.29022700563603e-14  0.000259703676337192  0.997866378551547  0.0161846448203211  
1.22486461375093e-10  -0.00232063828290263  2.34853113454104e-14  0.000261401495682966  0.997871099735175  0.016237073703433  
1.24765955263087e-10  -0.00231718136847377  2.40827451931785e-14  0.000262829349284902  0.997875842001903  0.0162892696608306  
1.27087870920206e-10  -0.00231370210673029  2.46950610299658e-14  0.000264507627718405  0.997880612746852  0.0163412730450162  
1.29452997822791e-10  -0.00231020023624731  2.53227992620027e-14  0.000266311492525198  0.997885413613473  0.0163931637817696  
1.31862140139475e-10  -0.00230666400214042  2.59668886699177e-14  0.000268353261573359  0.997890260517987  0.0164451321202392  
1.34316117004602e-10  -0.00230310021441327  2.66274157162433e-14  0.000270064386409243  0.997895144168391  0.0164970534608471  
1.36815762796747e-10  -0.00229951910834417  2.73041079914247e-14  0.000271647283098439  0.997900049329044  0.0165489891274041  
1.39361927422414e-10  -0.00229591037040004  2.79980405296758e-14  0.000273386476917137  0.997904991275032  0.0166023220073899  
1.4195547660501e-10  -0.00229228179007711  2.87092643886616e-14  0.000275081780256551  0.997909959539918  0.0166556360235482  
1.44597292179202e-10  -0.00228863570591508  2.94380883301978e-14  0.000276771343264644  0.997914951013356  0.0167087332331887  
1.4728827239075e-10  -0.00228497071668773  3.01848658913742e-14  0.000278296185389246  0.997919966617435  0.0167615961734075  
1.50029332201922e-10  -0.00228128433105186  3.09501807748824e-14  0.000280035163305232  0.997925009867027  0.0168142678564804  
1.52821403602587e-10  -0.00227757892896532  3.17344686539731e-14  0.000281750252156647  0.997930078296436  0.016866756299749  
1.55665435927106e-10  -0.00227383634562699  3.25391789553913e-14  0.000284026610830855  0.997935196435232  0.0169193849607618  
1.58562396177114e-10  -0.0022700557261088  3.33645248683835e-14  0.000285681188479608  0.997940363173156  0.0169730965660032  
1.61513269350309e-10  -0.00226624980836222  3.42102937520798e-14  0.000287437376228891  0.997945561232859  0.017027187756618  
1.64519058775366e-10  -0.00226238159522085  3.50770102718655e-14  0.00028922967396666  0.997950827807586  0.0170810878576462  
1.67580786453077e-10  -0.00225843151766677  3.59650423849284e-14  0.000290918672956619  0.997956181643819  0.0171347780123074  
1.7069949340384e-10  -0.00225445828936408  3.68749875839417e-14  0.00029272720733575  0.99796156454028  0.0171882608959107  
1.73876240021625e-10  -0.00225046188766973  3.78073747586482e-14  0.000294284949618878  0.997966976531484  0.0172415310661178  
1.77112106434509e-10  -0.00224644816311056  3.87626446107615e-14  0.000296082693048775  0.997972411210148  0.0172945799545891  
1.80408192871938e-10  -0.0022424085084673  3.97417340512799e-14  0.000298014994341354  0.997977879347747  0.0173482212640803  
1.83765620038817e-10  -0.00223832967646637  4.07459537178575e-14  0.000300142342496442  0.997983398162012  0.0174031510684941  
1.87185529496558e-10  -0.00223420665014249  4.17762508909019e-14  0.000302152612016015  0.997988974335072  0.0174584095255892  
1.90669084051225e-10  -0.00223005861205857  4.28322096041226e-14  0.00030402595105168  0.997994582995768  0.0175135034538637  
1.94217468148903e-10  -0.00222589203488355  4.39141392150522e-14  0.000305784748847384  0.998000216047122  0.0175683764611918  
1.97831888278416e-10  -0.00222170747326644  4.50226280786103e-14  0.000307657803746662  0.998005872764027  0.0176230255444613  
2.01513573381556e-10  -0.00221750083854127  4.61584611072736e-14  0.000309319839188457  0.99801155798034  0.0176774808491458  
2.05263775270925e-10  -0.00221327089227422  4.73222184307591e-14  0.000311216897663246  0.998017272555386  0.0177319362758363  
2.09083769055575e-10  -0.00220901215559407  4.85150508273549e-14  0.00031329711266107  0.998023024271942  0.0177872776721667  
2.12974853574552e-10  -0.00220472882820774  4.97374824632643e-14  0.000315103444604793  0.998028808050107  0.0178429683341545  
2.16938351838518e-10  -0.00220042555430005  5.09899680255562e-14  0.000317464909811301  0.998034618031094  0.0178984431540727  
2.2097561147959e-10  -0.00219606338152144  5.22758801494984e-14  0.000319457357924175  0.998040505169186  0.0179542326360563  
2.25088005209546e-10  -0.00219167733259023  5.35937263774818e-14  0.000321403205736918  0.998046423877324  0.0180098612733855  
2.29276931286565e-10  -0.00218726956158855  5.49441047475561e-14  0.000323360924489803  0.998052371227562  0.0180652924726332  
2.33543813990648e-10  -0.00218284606663954  5.63273435239579e-14  0.000325181463514823  0.998058339270542  0.0181204631925255  
2.37890104107889e-10  -0.00217838763010147  5.77449909305444e-14  0.000327064366073389  0.998064350465908  0.0181763323557375  
2.4231727942376e-10  -0.00217390165449543  5.91973673174931e-14  0.000328939062494441  0.998070395274961  0.0182332096641123  
2.46826845225569e-10  -0.00216939390757298  6.06855016952795e-14  0.000331049912767087  0.998076468740146  0.0182898684157902  
2.5142033481428e-10  -0.00216486533623365  6.22101752331475e-14  0.000332925142162524  0.998082569602866  0.0183463018792785  
2.56099310025846e-10  -0.00216030929210049  6.37725995955602e-14  0.000334867461560082  0.998088705824688  0.0184025581681851  
2.60865361762255e-10  -0.00215571861241378  6.53742866170403e-14  0.000337376067032446  0.998094886857685  0.0184587526070459  
2.65720110532451e-10  -0.00215108464604107  6.70172715628163e-14  0.00033946195776909  0.998101125363313  0.0185150466787253  
2.70665207003324e-10  -0.00214642403948795  6.87010955581866e-14  0.000341585093757148  0.99810739911096  0.0185714482812723  
2.75702332560958e-10  -0.00214173454453059  7.04270334324937e-14  0.000343679594725121  0.998113711366203  0.0186292278595121  
2.80833199882318e-10  -0.00213701189976996  7.21959362932997e-14  0.000345630571464205  0.998120065740351  0.0186871143375441  
2.86059553517574e-10  -0.00213227020349024  7.40079956565352e-14  0.000347762129195177  0.998126445140033  0.0187447477968936  
2.91383170483279e-10  -0.00212750381850268  7.58647734517591e-14  0.00034983885383171  0.99813285704354  0.0188021934345118  
2.9680586086656e-10  -0.00212271810581463  7.77668323193476e-14  0.000351849736162913  0.998139294349372  0.0188593966665477  
3.02329468440578e-10  -0.00211790793024693  7.97152550793016e-14  0.000353766571436558  0.998145762215738  0.0189163606001169  
3.07955871291423e-10  -0.00211306643894988  8.1712202392855e-14  0.000356062101964884  0.998152270935688  0.0189732622550792  
3.13686982456687e-10  -0.00210817305402668  8.37605083058478e-14  0.000358717947727776  0.998158846341072  0.0190313022527339  
3.19524750575921e-10  -0.00210323919767055  8.58603746237501e-14  0.000360812506163377  0.998165473552966  0.0190901162643  
3.25471160553184e-10  -0.00209827437261229  8.80122206352852e-14  0.000362727640082059  0.998172140433067  0.0191487544139762  
3.31528234231942e-10  -0.00209329010650623  9.02161315878975e-14  0.000364872461778071  0.998178831909879  0.0192071030544069  
3.37698031082509e-10  -0.00208828300626158  9.24740180247672e-14  0.000367025794518119  0.998185553408266  0.0192652351000599  
3.43982648902292e-10  -0.00208324911350135  9.47876152561988e-14  0.000369293650378946  0.998192310178686  0.019323195446814  
3.50384224529068e-10  -0.00207819623600908  9.71572155054943e-14  0.000371153354551519  0.998199091406253  0.019380892047465  
3.56904934567522e-10  -0.00207311084758225  9.95852500533773e-14  0.000373510876213001  0.998205913734059  0.0194389261880313  
3.63546996129332e-10  -0.00206798991066102  1.02073858181369e-13  0.000375805750507959  0.998212782202073  0.0194986133190893  
3.70312667586993e-10  -0.00206283095845303  1.04625126036491e-13  0.000378354575323834  0.998219700899607  0.0195583502440439  
3.77204249341699e-10  -0.00205762445265899  1.07241816923681e-13  0.000380963348573078  0.998226682569626  0.0196181576318542  
3.84224084605506e-10  -0.00205238639376659  1.09922772894503e-13  0.00038292267523318  0.998233703878287  0.0196777574275013  
3.91374560198038e-10  -0.00204712493267961  1.1266913418254e-13  0.000385154036217504  0.998240755644243  0.0197371169545928  
3.98658107358044e-10  -0.00204183708369442  1.15482950621695e-13  0.000387508297658772  0.998247842088735  0.019796279693355  
4.06077202570037e-10  -0.002036524291145  1.18365631419048e-13  0.000389733856373484  0.998254961245768  0.019855234836391  
4.13634368406327e-10  -0.00203117504479801  1.21319823625541e-13  0.000391945950443327  0.998262127042485  0.0199154553720338  
4.21332174384729e-10  -0.00202579654719407  1.24346475340078e-13  0.000394354635854516  0.998269330392783  0.01997591374205  
4.29173237842215e-10  -0.00202038949303651  1.27447628778266e-13  0.000396638493796302  0.998276571308665  0.0200361823425791  
4.3716022482485e-10  -0.00201495937083496  1.30624300806349e-13  0.000398926449624304  0.998283842517783  0.0200962074127397  
4.45295850994266e-10  -0.00200948724128889  1.33880796033792e-13  0.000401749215285922  0.998291168594005  0.0201562222937799  
4.53582882551018e-10  -0.00200395991920028  1.37220626624433e-13  0.00040418428111174  0.998298566106149  0.0202163594167215  
4.62024137175131e-10  -0.00199840456610684  1.40642441523005e-13  0.000406504011471501  0.998306000399363  0.0202763128783589  
4.70622484984129e-10  -0.00199282025544621  1.44147724658524e-13  0.000408894096852103  0.998313471367368  0.0203370176156382  
4.79380849508911e-10  -0.00198719960014023  1.47739415540058e-13  0.000410973552155912  0.998320988379608  0.0203987931067261  
4.88302208687788e-10  -0.00198155411246794  1.51417476402417e-13  0.000413451445231836  0.998328535569103  0.0204603969091027  
4.97389595879006e-10  -0.00197587640628427  1.55186231046398e-13  0.000415942467693088  0.998336124955088  0.0205218299129342  
5.06646100892127e-10  -0.00197017492155656  1.59046617893193e-13  0.000418200955873406  0.99834374561906  0.0205830168441743  
5.16074871038592e-10  -0.00196444856292214  1.630009295543e-13  0.000420683810949238  0.998351398882287  0.0206439713686595  
5.25679112201842e-10  -0.00195869332384875  1.67051321654795e-13  0.000423090225589522  0.998359088603904  0.0207046884195043  
5.35462089927361e-10  -0.00195288343361339  1.71205281060214e-13  0.000426293503025798  0.998366850277289  0.0207658665039793  
5.45427130532983e-10  -0.00194701511055978  1.75467064148272e-13  0.00042904867062849  0.9983746906762  0.0208284976956198  
5.55577622239888e-10  -0.0019411147163271  1.79834090202858e-13  0.0004315247556027  0.99838257378912  0.0208914521987368  
5.65917016324625e-10  -0.0019351874508534  1.84307049792215e-13  0.000433680431213442  0.998390491128294  0.020954125607284  
5.76448828292587e-10  -0.00192923132286514  1.88888640057056e-13  0.000436247038280591  0.998398445013327  0.0210165253287935  
5.87176639073326e-10  -0.00192324627510505  1.93582104044454e-13  0.000438721920765569  0.998406436636582  0.0210786997956565  
5.98104096238093e-10  -0.00191723801326787  1.98389190222828e-13  0.000441190931858782  0.998414458745659  0.021140603662239  
6.09234915240071e-10  -0.00191120118734218  2.03313365656109e-13  0.000443466202694604  0.998422517975119  0.0212022946567045  
6.20572880677651e-10  -0.00190512682735123  2.08356964487194e-13  0.00044605738513375  0.998430622559988  0.021264813924781  
6.32121847581245e-10  -0.00189901179770441  2.13524841520499e-13  0.000448877762573632  0.998438778839239  0.0213282185700091  
6.43885742724043e-10  -0.00189283861710831  2.18824910936674e-13  0.000452132742962207  0.998447011912911  0.0213917753205662  
6.55868565957142e-10  -0.00188662401959783  2.24256900065263e-13  0.000454686146899694  0.998455299517686  0.0214552867065659  
6.68074391569561e-10  -0.00188037454865864  2.29821264597084e-13  0.000457002207404721  0.998463630950575  0.0215185724801131  
6.80507369673522e-10  -0.00187409776727365  2.35520377534716e-13  0.000459681007921748  0.998471997496394  0.0215816073894917  
6.9317172761554e-10  -0.00186779307192072  2.41358085765417e-13  0.000462243440170666  0.998480400710586  0.021644419521697  
7.06071771413778e-10  -0.00186146179995451  2.47337557840656e-13  0.000464919154228956  0.998488839072923  0.0217074792447784  
7.19211887222118e-10  -0.00185508238306249  2.53466674058761e-13  0.000467613654535881  0.99849734042663  0.0217724163767136  
7.32596542821523e-10  -0.00184867143505256  2.59744632313893e-13  0.000470348991162145  0.998505882015764  0.0218372790078277  
7.46230289139112e-10  -0.00184223080922601  2.66175370435803e-13  0.000472976024320452  0.998514462525673  0.0219019015731817  
7.60117761795532e-10  -0.00183576613887944  2.72761237851492e-13  0.000475601522443141  0.998523074624435  0.0219662367532028  
7.74263682681128e-10  -0.00182922782721518  2.7951788786774e-13  0.000478862655806905  0.998531783407226  0.0220307829911293  
7.88672861561414e-10  -0.00182265132056859  2.86439510976304e-13  0.000481765227761555  0.998540540472806  0.0220951231083612  
8.03350197712473e-10  -0.00181603909471115  2.93530893203511e-13  0.000484463323962622  0.998549344388158  0.0221593733921957  
8.18300681586741e-10  -0.0018093892108715  3.00796870053139e-13  0.00048754072639894  0.998558198005932  0.0222246616914242  
8.33529396509819e-10  -0.00180269964549153  3.08241987674139e-13  0.000490383546492099  0.998567103733927  0.0222904978994922  
8.49041520408876e-10  -0.00179598350545539  3.158651898796e-13  0.00049283437139733  0.998576042104938  0.0223559841272578  
8.64842327573171e-10  -0.00178923043386201  3.23674895927604e-13  0.000495556300266552  0.99858502841727  0.0224212685212667  
8.80937190447399e-10  -0.00178245295327521  3.31672599451352e-13  0.00049829192030649  0.998594046759812  0.022486261796534  
8.97331581458354e-10  -0.0017756467854036  3.39863857928041e-13  0.000501127306840092  0.998603102681294  0.0225510044469309  
9.14031074875622e-10  -0.00176880393962099  3.4825405352372e-13  0.000504102042489167  0.99861220504694  0.0226155310975635  
9.31041348706908e-10  -0.00176189079042824  3.5685781694979e-13  0.000507615153605131  0.99862139811231  0.0226809879241119  
9.48368186628591e-10  -0.00175491773869848  3.65678092831383e-13  0.00051047188877042  0.998630668891038  0.0227483565871458  
9.66017479952265e-10  -0.00174791220975312  3.74712747648756e-13  0.000513421400701947  0.998639982166306  0.0228154936365396  
9.83995229627825e-10  -0.00174087111697992  3.83967120566754e-13  0.00051594059486146  0.998649341263127  0.0228823812310717  
1.00230754828386e-09  -0.00173379913857178  3.93443804658895e-13  0.00051889457419885  0.998658738865689  0.0229489482044601  
1.02096066230605e-09  -0.00172669430216308  4.03150622425483e-13  0.00052181777928473  0.998668179503763  0.0230152750315337  
1.03996091395412e-09  -0.0017195618264231  4.13091345614853e-13  0.000524658051471413  0.998677656319059  0.0230813214328088  
1.05931476351837e-09  -0.00171240095682575  4.23271744907497e-13  0.000527590901860293  0.99868717031272  0.0231470967448586  
1.07902879151619e-09  -0.00170518403275174  4.33708674407207e-13  0.000530841549552802  0.998696759527807  0.0232148787010347  
1.0991097009295e-09  -0.00169793275002953  4.44399726155778e-13  0.00053386351990367  0.998706394248249  0.0232827271959052  
1.11956431948388e-09  -0.00169061544526248  4.55361523401803e-13  0.000537875250441602  0.998716115562038  0.02335066992075  
1.14039960197003e-09  -0.00168324361827323  4.66596872703283e-13  0.000540831654914535  0.998725908464819  0.0234186010967159  
1.1616226326085e-09  -0.00167583660992801  4.7810321920684e-13  0.000543424877712137  0.998735745607727  0.0234862492982299  
1.18324062745838e-09  -0.00166839844086047  4.89886389584895e-13  0.00054659851632465  0.998745622493019  0.0235536125568774  
1.20526093687084e-09  -0.00166092645541951  5.01955124133043e-13  0.000549540438899879  0.998755543629006  0.0236207444907841  
1.22769104798836e-09  -0.00165341184746063  5.14317868063268e-13  0.00055284613984468  0.998765519176681  0.0236888375919674  
1.25053858729039e-09  -0.00164585697922345  5.26977239879698e-13  0.000555523363388714  0.998775543244037  0.0237577306047023  
1.27381132318648e-09  -0.00163813734641731  5.39944773066256e-13  0.000558727549023166  0.998785743932731  0.0238265487138405  
1.29751716865759e-09  -0.00163028203538774  5.53225367498917e-13  0.00056164763627264  0.998796090255371  0.0238951604047637  
1.3216641839466e-09  -0.00162240093894324  5.66824190645104e-13  0.000564781022617  0.998806470628835  0.0239634637372936  
1.34626057929891e-09  -0.00161445926402737  5.80762819809853e-13  0.000568515067336488  0.99881693034118  0.0240317908611917  
1.37131471775394e-09  -0.00160644853402842  5.95049882033956e-13  0.00057180513196495  0.998827478028802  0.0241001833024825  
1.39683511798874e-09  -0.00159839306349073  6.09687101141807e-13  0.000575256494210847  0.998838084437175  0.0241690389926302  
1.42283045721435e-09  -0.00159029001200078  6.24684355865584e-13  0.000578615548930985  0.998848753412111  0.0242394040612303  
1.44930957412622e-09  -0.00158214255497124  6.40048645316324e-13  0.00058199324370183  0.998859480585276  0.0243100607211884  
1.47628147190939e-09  -0.00157396025932322  6.55781178686158e-13  0.00058474918988393  0.998870251221458  0.0243803750097162  
1.50375532129974e-09  -0.00156574213637643  6.71893082734718e-13  0.000587992352870112  0.998881067975094  0.0244504015414152  
1.53174046370208e-09  -0.00155749019446644  6.88393601487969e-13  0.000591248432627208  0.998891929023607  0.0245201491767942  
1.56024641436637e-09  -0.00154920530116578  7.05291717484678e-13  0.000594505024109  0.998902833371053  0.0245896174825507  
1.58928286562298e-09  -0.00154088995982488  7.22593162481823e-13  0.000597525109984227  0.998913776215789  0.0246588364780225  
1.6188596901782e-09  -0.00153250118215786  7.40324705610692e-13  0.000601685868739081  0.998924811276792  0.0247292285632981  
1.64898694447107e-09  -0.00152402365234851  7.58510156121062e-13  0.000605559189074191  0.9989359618913  0.0248006005429464  
1.67967487209265e-09  -0.00151549841163822  7.77141275432161e-13  0.00060881920888563  0.998947175221423  0.0248717907014013  
