# PlotEOS table
# ColdTable(filename=input/HS_ColdTable.dat)
# Units are geometric, with M_sol=1.
# Conversion to cgs: rhoscale=6.177e17, Energypermassscale=8.989e20, Pscale=5.552e38
#[1] rho
#[2] eps, specific energy (E/rho)
#[3] P
#[4] dP/drho
#[5] h, specific enthalpy (1+eps+P/rho)
#[6] cs, adiabatic relativistic sound speed (nonrelcs/sqrt(h))
1e-10  -0.00240993824881777  1.60170433591851e-14  0.000220985217519052  0.997750232184774  0.0149318490153174  
1.01861017015598e-10  -0.00240704459801837  1.64297635804702e-14  0.000222544998506679  0.997754251293794  0.0149808704888732  
1.03756667874518e-10  -0.00240413040681669  1.68530410181697e-14  0.0002240475229424  0.997758298103692  0.0150298607142345  
1.05687597118481e-10  -0.00240121235764384  1.7286483671741e-14  0.0002251643638853  0.997762349726679  0.0150801063792438  
1.07654461284231e-10  -0.00239827435374542  1.77308373848135e-14  0.000226690563299803  0.997766427017413  0.0151305404498622  
1.09657929126781e-10  -0.00239531273109782  1.8186609519772e-14  0.00022827300800505  0.997770535827822  0.0151807896682958  
1.11698681846782e-10  -0.00239232826239124  1.86540958267651e-14  0.000229876838404672  0.997774675461541  0.0152308593077009  
1.13777413322149e-10  -0.0023893206987056  1.91335965838696e-14  0.000231481727004712  0.997778846216196  0.0152807521939057  
1.15894830343981e-10  -0.00238628816677756  1.96254113024008e-14  0.000233056388445522  0.997783049941265  0.0153304558182148  
1.1805165285688e-10  -0.00238323012011533  2.01298585731934e-14  0.00023468874103304  0.997787287260083  0.0153799734171979  
1.20248614203741e-10  -0.00238016159043665  2.06463807762436e-14  0.000235460445095448  0.997791535862486  0.0154301379848262  
1.22486461375093e-10  -0.00237708436906838  2.11751188507976e-14  0.000237092096358707  0.997795792850284  0.0154810748886444  
1.24765955263087e-10  -0.00237398296393944  2.17173911387915e-14  0.000238682048363749  0.997800082077225  0.0155318414826931  
1.27087870920206e-10  -0.00237085464191073  2.22735440118325e-14  0.000240336176480186  0.997804406331859  0.0155824213058734  
1.29452997822791e-10  -0.00236770228211745  2.28439451148738e-14  0.000241993895040755  0.997808762886701  0.0156328383100603  
1.31862140139475e-10  -0.0023645257610582  2.34289564018992e-14  0.000243671316920764  0.997813151898178  0.0156830932704105  
1.34316117004602e-10  -0.00236132494032308  2.40289485722807e-14  0.000245352329663578  0.997817573535215  0.0157331866027977  
1.36815762796747e-10  -0.00235810025887862  2.46440748606578e-14  0.00024644951868646  0.997822025732139  0.0157834277108139  
1.39361927422414e-10  -0.00235487331642789  2.52736690994037e-14  0.000248048056215539  0.99782647943584  0.0158352833942188  
1.4195547660501e-10  -0.00235162460059845  2.59192037162998e-14  0.000249752724344069  0.997830962252239  0.0158871651225044  
1.44597292179202e-10  -0.0023483511262509  2.65812422493893e-14  0.000251466596805763  0.997835478334514  0.0159388716003482  
1.4728827239075e-10  -0.00234505040234999  2.72602017431289e-14  0.000253142057690326  0.99784003019708  0.0159903896769141  
1.50029332201922e-10  -0.00234172295336759  2.79564934286661e-14  0.000254879510410115  0.997844617231037  0.0160417212225094  
1.52821403602587e-10  -0.00233837019398512  2.86705886202524e-14  0.00025663201866712  0.997849238268864  0.0160928815856897  
1.55665435927106e-10  -0.00233499173097019  2.94029491992107e-14  0.000258396923190276  0.997853893804371  0.0161438754356463  
1.58562396177114e-10  -0.00233160752850441  3.01525260571805e-14  0.000259304186324324  0.997858554368542  0.0161959531095261  
1.61513269350309e-10  -0.00232820656073812  3.09203464015839e-14  0.000261068939551422  0.997863234963082  0.0162485346876122  
1.64519058775366e-10  -0.00232473740256246  3.17077215313173e-14  0.000262822646027213  0.997867992374567  0.0163009324874546  
1.67580786453077e-10  -0.00232117816436763  3.25151282829851e-14  0.000264605676585062  0.997872848424069  0.0163531442367515  
1.7069949340384e-10  -0.00231758841844281  3.33431082304318e-14  0.000266401055238535  0.997877743785336  0.0164051756935229  
1.73876240021625e-10  -0.00231396853108841  3.4192150651377e-14  0.000268146579231237  0.997882677949461  0.0164570033930838  
1.77112106434509e-10  -0.00231032207256772  3.50628070604425e-14  0.000269963160014554  0.997887647494653  0.0165086510489934  
1.80408192871938e-10  -0.00230665829757668  3.59548735923521e-14  0.000271374255859159  0.997892639045964  0.016561015750729  
1.83765620038817e-10  -0.00230298376837862  3.686829080059e-14  0.000272909594980013  0.997897642936403  0.0166147186299803  
1.87185529496558e-10  -0.00229928282091736  3.78046432231435e-14  0.000274684884859297  0.997902680671265  0.0166684863944836  
1.90669084051225e-10  -0.00229555366381161  3.87647757864436e-14  0.000276523666267728  0.997907755519632  0.0167220562786234  
1.94217468148903e-10  -0.00229179758546888  3.97493005692386e-14  0.000278387215995463  0.997912866294398  0.0167754372214442  
1.97831888278416e-10  -0.00228801442466065  4.07588381391099e-14  0.000280251227238125  0.9979180132208  0.0168286308393642  
2.01513573381556e-10  -0.00228420246644437  4.17940163257848e-14  0.000282072199150856  0.997923198035787  0.0168816303727941  
2.05263775270925e-10  -0.00228036343082795  4.2855180547675e-14  0.000283672983513191  0.997928417590037  0.0169346690556119  
2.09083769055575e-10  -0.00227651296512381  4.39418758849013e-14  0.000285227412899229  0.997933651009265  0.0169887228945876  
2.12974853574552e-10  -0.00227264332577987  4.50553875864775e-14  0.000287126230454265  0.997938909291021  0.0170432101418477  
2.16938351838518e-10  -0.00226874588195642  4.61971215416789e-14  0.000288971393782649  0.997944204576781  0.0170975079206467  
2.2097561147959e-10  -0.00226481637831792  4.73677520910663e-14  0.000290901740218015  0.997949540997023  0.0171515930688043  
2.25088005209546e-10  -0.00226085882714337  4.85680669193018e-14  0.000292832455455807  0.997954914851574  0.0172054969855733  
2.29276931286565e-10  -0.0022568730559236  4.97988075648592e-14  0.000294789118515989  0.997960326325128  0.0172592190598652  
2.33543813990648e-10  -0.00225285885888453  5.10607594306645e-14  0.00029675267741215  0.997965775745724  0.0173127631424161  
2.37890104107889e-10  -0.002248824848491  5.2353152286675e-14  0.000297814961173035  0.997971247997679  0.0173670227256646  
2.4231727942376e-10  -0.00224477894972918  5.36760404450733e-14  0.000299779372274871  0.997976732452894  0.0174224505942748  
2.46826845225569e-10  -0.00224070445120922  5.50323857341929e-14  0.000301760381408852  0.997982255031516  0.0174776971875794  
2.5142033481428e-10  -0.00223660116706352  5.64230355063544e-14  0.000303751509191738  0.997987815984986  0.0175327642025778  
2.56099310025846e-10  -0.00223246689179929  5.7848824444846e-14  0.000305685937852806  0.997993417451423  0.0175876409688905  
2.60865361762255e-10  -0.00222830080652001  5.93106330805959e-14  0.000307703354946838  0.997999060283814  0.0176423257654865  
2.65720110532451e-10  -0.00222410530712086  6.08094244420125e-14  0.000309741237886532  0.998004742348859  0.0176968372079525  
2.70665207003324e-10  -0.0022198840607383  6.23457883830705e-14  0.000311676030760903  0.998010458764161  0.0177515420402397  
2.75702332560958e-10  -0.00221565569644066  6.39188550776868e-14  0.000313197147809022  0.99801618439894  0.0178082290653443  
2.80833199882318e-10  -0.00221139776742876  6.55312163900275e-14  0.000315252317417962  0.998021947921106  0.0178650678779801  
2.86059553517574e-10  -0.0022071100366106  6.71842908183685e-14  0.000317321359309378  0.998027751166213  0.0179216997887847  
2.91383170483279e-10  -0.00220279232458848  6.88791195996024e-14  0.000319407893001281  0.99803359442172  0.0179781264947573  
2.9680586086656e-10  -0.00219844443287585  7.06167564907587e-14  0.000321505088639222  0.998039477946031  0.0180343497888524  
3.02329468440578e-10  -0.00219406214000169  7.23982481196904e-14  0.000323546177566164  0.998045405909518  0.01809034746427  
3.07955871291423e-10  -0.00218964905381232  7.42246208262384e-14  0.000325628504066509  0.998051374507502  0.0181461814816514  
3.13686982456687e-10  -0.00218522242000345  7.60949471012942e-14  0.000327105485950543  0.998057359999278  0.0182029908336187  
3.19524750575921e-10  -0.00218077915246789  7.80105941932242e-14  0.000329224071785583  0.99806336654846  0.0182605402106986  
3.25471160553184e-10  -0.00217630258293987  7.99744400561764e-14  0.000331284758528688  0.998069416392346  0.0183178463724439  
3.31528234231942e-10  -0.00217179265315705  8.19876904131616e-14  0.000333434319683378  0.998075509633489  0.0183749153349444  
3.37698031082509e-10  -0.00216725153770007  8.40516241664829e-14  0.000335601698693802  0.998081644269886  0.0184317638067163  
3.43982648902292e-10  -0.00216267904565976  8.61675201135076e-14  0.000337779766281024  0.998087820566424  0.0184883938330483  
3.50384224529068e-10  -0.00215807384105133  8.8336674672425e-14  0.000339895144499732  0.998094039891498  0.0185448019892925  
3.56904934567522e-10  -0.00215344000271332  9.05593365736102e-14  0.000341396696268512  0.998100295173807  0.0186013944492176  
3.63546996129332e-10  -0.00214879946430922  9.28341482540019e-14  0.000343548027293459  0.998106557200008  0.0186592608824661  
3.70312667586993e-10  -0.00214412858939626  9.51658870504312e-14  0.00034575351175829  0.998112859343721  0.0187170223817724  
3.77204249341699e-10  -0.00213942577475705  9.75561830821538e-14  0.000347980880288405  0.998119203822477  0.0187745882945156  
3.84224084605506e-10  -0.00213468601188487  1.00006440935572e-13  0.000350132077773142  0.998125595539799  0.0188319394845903  
3.91374560198038e-10  -0.00212991340430761  1.02518223078331e-13  0.000352387916392955  0.998132030609188  0.0188890961227163  
3.98658107358044e-10  -0.00212510812102373  1.05093109763889e-13  0.000354658597614882  0.998138509018134  0.0189460663455643  
4.06077202570037e-10  -0.00212026997112851  1.07732688943436e-13  0.00035694422794396  0.998145031031394  0.0190028513889917  
4.13634368406327e-10  -0.00211542295263232  1.10433071585378e-13  0.000358186684818547  0.998151559387377  0.0190612195134005  
4.21332174384729e-10  -0.00211054986442701  1.13199319037612e-13  0.000360489106147479  0.998158120144463  0.0191199609160572  
4.29173237842215e-10  -0.00210564366618331  1.16034986567918e-13  0.000362791353243433  0.998164724978309  0.0191785149870667  
4.3716022482485e-10  -0.00210070423231791  1.18941733573169e-13  0.00036510869795812  0.998171373891031  0.0192368795146282  
4.45295850994266e-10  -0.00209572970315409  1.2192132870793e-13  0.000367350578036794  0.998178068780339  0.0192950484763407  
4.53582882551018e-10  -0.0020907177416348  1.24975526213917e-13  0.000369701600705123  0.998184811893679  0.0193530123334963  
4.62024137175131e-10  -0.00208567183812283  1.28106329957407e-13  0.000372068199554907  0.998191600104293  0.0194107931499825  
4.70622484984129e-10  -0.00208060654765178  1.31312937608657e-13  0.000373938355053427  0.998198413137549  0.0194698030505598  
4.79380849508911e-10  -0.00207552622189932  1.34596323858203e-13  0.000375958032359314  0.998205244951993  0.0195304278334669  
4.88302208687788e-10  -0.00207040864078829  1.37961307323298e-13  0.00037834010228708  0.998212123989351  0.0195910263555937  
4.97389595879006e-10  -0.00206525676604752  1.41410472729966e-13  0.000380741761151058  0.998219048482598  0.0196514060795555  
5.06646100892127e-10  -0.00206007028129861  1.44945982992359e-13  0.000383163320639703  0.998226018929172  0.0197115726449136  
5.16074871038592e-10  -0.00205484898819461  1.48570000117275e-13  0.000385596720159551  0.998233035596882  0.0197715275293429  
5.25679112201842e-10  -0.00204958879946955  1.522845638648e-13  0.000387942281613566  0.998240102307386  0.0198312482988853  
5.35462089927361e-10  -0.00204429777325849  1.56091364861345e-13  0.000390188735060364  0.998247210006279  0.0198911846497683  
5.45427130532983e-10  -0.00203899337172325  1.59990907293834e-13  0.000392455584393322  0.998254338034687  0.0199524591642187  
5.55577622239888e-10  -0.002033662373376  1.63986897108798e-13  0.000394931496859556  0.998261502317469  0.0200141091714634  
5.65917016324625e-10  -0.00202829365103369  1.68082762468082e-13  0.000397338962952853  0.998268715906233  0.0200755100748406  
5.76448828292587e-10  -0.00202288569576664  1.7228095648316e-13  0.000399842347818984  0.99827598030591  0.0201366574748259  
5.87176639073326e-10  -0.00201744187170474  1.76584074044805e-13  0.000402379054117593  0.998283292289524  0.0201975704154071  
5.98104096238093e-10  -0.00201196182080317  1.80994821964947e-13  0.000404923874040136  0.998290652428294  0.0202582557710043  
6.09234915240071e-10  -0.00200644514402713  1.85515714862866e-13  0.000406992758028086  0.998298060901543  0.0203187227191262  
6.20572880677651e-10  -0.0020009060235186  1.90143673250468e-13  0.000408939141937192  0.998305494206287  0.0203800027157128  
6.32121847581245e-10  -0.00199534912084956  1.94881409436208e-13  0.000411490495757929  0.998312948100931  0.0204420746194834  
6.43885742724043e-10  -0.00198975553273175  1.99737244931553e-13  0.000414071369476976  0.99832045050489  0.020503907326293  
6.55868565957142e-10  -0.00198412522500338  2.047140207478e-13  0.000416646589041003  0.998328001367691  0.0205654971296725  
6.68074391569561e-10  -0.00197845313780836  2.09814658174015e-13  0.000419127049257896  0.99833560568681  0.0206268226911925  
6.80507369673522e-10  -0.00197274255811537  2.15042220861538e-13  0.000421747324223687  0.998343260222229  0.0206879016887929  
6.9317172761554e-10  -0.00196699439924431  2.20400073247047e-13  0.000424384401332175  0.998350964433274  0.0207487480009219  
7.06071771413778e-10  -0.00196121564682756  2.25889836565007e-13  0.000426859716359009  0.998358709105457  0.0208099844951488  
7.19211887222118e-10  -0.00195542635386021  2.31509291410292e-13  0.000428861911908504  0.998366466673109  0.0208735408500135  
7.32596542821523e-10  -0.00194959916986227  2.37267667866374e-13  0.000431519073469105  0.998374273049016  0.0209371175157637  
7.46230289139112e-10  -0.00194373397394877  2.43169300122918e-13  0.000434206841318463  0.998382129641697  0.0210004850246129  
7.60117761795532e-10  -0.00193783060379957  2.49217686273685e-13  0.000436888621805276  0.99839003660152  0.0210636432360218  
7.74263682681128e-10  -0.00193188777145733  2.5541640859221e-13  0.000439466921563277  0.998397995205499  0.021126587569319  
7.88672861561414e-10  -0.00192590118862999  2.61768997691167e-13  0.000442199994022473  0.998406009557193  0.0211893005523356  
8.03350197712473e-10  -0.00191987769519743  2.68279252764509e-13  0.000444875106541673  0.998414072870233  0.0212519460597781  
8.18300681586741e-10  -0.0019138415010467  2.74946170350043e-13  0.000447112295642763  0.998422155005539  0.0213160132378046  
8.33529396509819e-10  -0.00190778198068297  2.81775740357809e-13  0.000449885829275264  0.99843026937244  0.02138083663388  
8.49041520408876e-10  -0.00190167777476378  2.88774952454548e-13  0.000452553480064559  0.998438440989175  0.0214454348296169  
8.64842327573171e-10  -0.00189553351772368  2.95948181185109e-13  0.00045536184064181  0.998446665484048  0.0215098257125108  
8.80937190447399e-10  -0.00188934962650045  3.0329987585583e-13  0.000458188402089558  0.998454942655792  0.0215740191631908  
8.97331581458354e-10  -0.00188312587168033  3.10834490129583e-13  0.000461033296573962  0.998463272824802  0.0216380165539265  
9.14031074875622e-10  -0.00187685845444528  3.18556220637934e-13  0.000463765247360529  0.998471659478253  0.0217018007393341  
9.31041348706908e-10  -0.00187056020727837  3.26465852810628e-13  0.000465826336734778  0.998480085715445  0.0217662146131309  
9.48368186628591e-10  -0.00186425104017602  3.34562147812458e-13  0.000468702056903741  0.998488525605571  0.0218324375578261  
9.66017479952265e-10  -0.00185790179298417  3.42859492748402e-13  0.000471586408572786  0.998497018795788  0.0218984519386446  
9.83995229627825e-10  -0.00185151042264141  3.51362758654647e-13  0.000474360411252928  0.998505567282692  0.0219642214984156  
1.00230754828386e-09  -0.00184507344542219  3.60076942172633e-13  0.000477300633675666  0.998514174514737  0.0220297351684293  
1.02096066230605e-09  -0.00183859531186229  3.69007664836545e-13  0.000480229964897395  0.998522836502761  0.0220950228471596  
1.03996091395412e-09  -0.00183207586023162  3.78160181732718e-13  0.000483203194232888  0.998531553365308  0.0221600845953583  
1.05931476351837e-09  -0.00182551486330138  3.87540061863685e-13  0.000486180480309195  0.998540325465947  0.0222249220144024  
1.07902879151619e-09  -0.00181894191824404  3.97143964242551e-13  0.000488541577967274  0.998549114956017  0.0222913343115908  
1.0991097009295e-09  -0.00181233244859567  4.06984841794356e-13  0.00049153660331561  0.998557953466859  0.022357757478808  
1.11956431948388e-09  -0.00180568115135625  4.17069923422916e-13  0.000494566219897827  0.998566847622708  0.0224239211821675  
1.14039960197003e-09  -0.00179898771567311  4.27405330750052e-13  0.000497605064285248  0.998575797868268  0.0224898292771974  
1.1616226326085e-09  -0.0017922475227254  4.37996918829554e-13  0.000500523091556856  0.998584808593895  0.0225554561684927  
1.18324062745838e-09  -0.00178546238601964  4.48851137222211e-13  0.000503599769354641  0.998593878152841  0.0226208168312767  
1.20526093687084e-09  -0.00177863436540909  4.5997477570834e-13  0.000506701491578081  0.998603004798059  0.0226859272753108  
1.22769104798836e-09  -0.00177178624511663  4.71357049100487e-13  0.000508678312305928  0.998612151594841  0.0227517917625723  
1.25053858729039e-09  -0.00176490881367746  4.83003851915704e-13  0.000511127129931923  0.998621327850129  0.0228183322166955  
1.27381132318648e-09  -0.00175786639463159  4.94935884583415e-13  0.000514171134567438  0.998630680853752  0.0228846953561361  
1.29751716865759e-09  -0.00175067819820777  5.07162018670508e-13  0.000517291980098655  0.998640192944712  0.0229508533437489  
1.3216641839466e-09  -0.00174344636977432  5.19690492568838e-13  0.000520427167262821  0.998649762812166  0.0230167761614245  
1.34626057929891e-09  -0.00173617035796481  5.32528799898169e-13  0.00052340935604796  0.998659391101746  0.0230824613430729  
1.37131471775394e-09  -0.00172884357382847  5.45683455582971e-13  0.000526587744887882  0.998669083647777  0.0231478733292158  
1.39683511798874e-09  -0.00172148073438638  5.59158661407607e-13  0.00052929096163429  0.998678823248673  0.0232141273200192  
1.42283045721435e-09  -0.00171409556663212  5.72953490225748e-13  0.000532112437258362  0.998688590141507  0.0232829886105935  
1.44930957412622e-09  -0.00170667258386425  5.87084889056783e-13  0.00053532680184249  0.99869840642723  0.0233524433433073  
1.47628147190939e-09  -0.00169919974764691  6.01564386426012e-13  0.000538383481848016  0.998708286492527  0.0234216133206642  
1.50375532129974e-09  -0.00169168023306539  6.16401188153777e-13  0.000541614390551252  0.998718227668455  0.0234905212030022  
1.53174046370208e-09  -0.00168411563473378  6.3160407900628e-13  0.000544882130494274  0.998728228423528  0.0235591771017071  
1.56024641436637e-09  -0.00167650573246278  6.47182324216382e-13  0.000548164783560558  0.998738289211629  0.0236275853392798  
1.58928286562298e-09  -0.00166884848557411  6.63144220342063e-13  0.000551088726807472  0.998748411547039  0.0236958585148726  
1.6188596901782e-09  -0.00166116233071541  6.79491983436919e-13  0.000554153745077836  0.998758572614542  0.0237657705195595  
1.64898694447107e-09  -0.00165344551406524  6.96237671360467e-13  0.000557489603163343  0.998768775943597  0.0238367913119216  
1.67967487209265e-09  -0.0016456828839952  7.13396471974356e-13  0.000560834908303012  0.998779040069135  0.0239075498626791  
